timestamp,ir_raw,ir_filtered
1769239276.057512,230949,4.922832342657557e-06
1769239276.0576034,231036,-0.27700766780153074
1769239276.0576797,231157,-2.1494574637567254
1769239276.0577538,231385,-8.538659294975762
1769239276.0578275,231582,-23.79276226838787
1769239276.0579157,231875,-53.22265610020014
1769239276.0664504,232105,-102.70386920354801
1769239276.1263752,232453,-178.33245454359104
1769239276.1659043,232340,-286.1741784496687
1769239276.2264082,231666,-432.22810601963226
1769239276.266364,231530,-622.4764429174998
1769239276.3261588,231604,-862.6469435590176
1769239276.3671763,231725,-1157.7555138388848
1769239276.4273257,231996,-1511.7748295807125
1769239276.4672036,232179,-1927.4744609785885
1769239276.5273366,232383,-2406.369863988773
1769239276.5671387,232573,-2948.7453933643096
1769239276.627229,232880,-3553.6846818499134
1769239276.6672587,233086,-4219.100715429295
1769239276.727353,233377,-4941.803482893146
1769239276.7672489,233572,-5717.603062809825
1769239276.828104,233838,-6541.427127203912
1769239276.8678825,233570,-7407.5020663457235
1769239276.9279246,233223,-8309.654441291446
1769239276.968061,233317,-9241.543127517676
1769239277.02821,233539,-10196.60955306502
1769239277.06796,233693,-11167.943967883653
1769239277.1282418,233904,-12148.30878859434
1769239277.1680827,233960,-13130.27105627041
1769239277.2293665,234045,-14106.362150432251
1769239277.269095,234142,-15069.218758955725
1769239277.3291614,234405,-16011.653099176712
1769239277.3694217,234573,-16926.678150813288
1769239277.429253,234850,-17807.554550573546
1769239277.4691844,234998,-18647.868813760928
1769239277.529175,235208,-19441.624183094173
1769239277.5691054,234926,-20183.378593817248
1769239277.630301,234502,-20868.47668005176
1769239277.670011,234511,-21493.208872946212
1769239277.7303708,234706,-22054.67897332113
1769239277.7703307,234854,-22550.548213144903
1769239277.830323,235107,-22978.912183885146
1769239277.8704188,235157,-23338.29797816965
1769239277.9305036,235229,-23627.717302302746
1769239277.9704072,235300,-23846.717940195394
1769239278.0311599,235441,-23995.3705206019
1769239278.0713222,235573,-24074.21242175464
1769239278.1313274,235748,-24084.19331676631
1769239278.171051,235905,-24026.632152249418
1769239278.2313783,236118,-23903.178851211676
1769239278.271333,236047,-23715.80717380289
1769239278.3311257,235524,-23466.92905351493
1769239278.3713598,235486,-23159.538401200178
1769239278.4312363,235631,-22797.10176619829
1769239278.472353,235745,-22383.264804070528
1769239278.532196,235945,-21921.669415341188
1769239278.5723133,235995,-21415.906493639377
1769239278.6322842,236057,-20869.526617296284
1769239278.6721003,236158,-20286.055672992792
1769239278.7323546,236259,-19668.96772690493
1769239278.7724266,236375,-19021.642951311816
1769239278.8322341,236495,-18347.339219070345
1769239278.873301,236597,-17649.174651174686
1769239278.9332376,236716,-16930.119550183015
1769239278.973079,236798,-16192.993359662749
1769239279.033324,236259,-15440.545281893015
1769239279.0733297,236185,-14675.616146381972
1769239279.1332898,236330,-13901.111627023356
1769239279.1730247,236458,-13119.762481041873
1769239279.2332468,236668,-12333.964627109326
1769239279.2740479,236716,-11545.768178045802
1769239279.3341513,236702,-10756.946088198969
1769239279.3742955,236758,-9969.07932426529
1769239279.434109,236875,-9183.57302072185
1769239279.47437,237017,-8401.618191033584
1769239279.5340574,237155,-7624.169027885085
1769239279.5742242,237266,-6851.958124813711
1769239279.6339583,237383,-6085.533748232873
1769239279.6751568,237377,-5325.31032972188
1769239279.734899,236765,-4571.71148523391
1769239279.7753012,236678,-3825.368287649408
1769239279.8348734,236826,-3087.0821979728094
1769239279.8752372,236986,-2357.562837506729
1769239279.935421,237174,-1637.267296461065
1769239279.9749486,237198,-926.4146903362561
1769239280.0349808,237103,-225.09233559811182
1769239280.0761142,237082,466.62607699600983
1769239280.1359358,237127,1148.6488620867342
1769239280.176,237239,1820.916113605134
1769239280.236045,237380,2483.4553208168027
1769239280.2760901,237497,3136.401818001718
1769239280.3361108,237559,3779.9737989780847
1769239280.3760693,237101,4414.354921927661
1769239280.4360507,236466,5039.450636760308
1769239280.4771833,236365,5654.73869571459
1769239280.5370646,236357,6259.442591802006
1769239280.5770686,236452,6852.824436327862
1769239280.6373463,236538,7434.33440321029
1769239280.6773038,236521,8003.621983788836
1769239280.7372797,236425,8560.467383711992
1769239280.7771058,236423,9104.704514108533
1769239280.8374465,236451,9636.211782042976
1769239280.908565,236522,10154.94900137982
1769239280.9643326,236583,10660.980743727596
1769239281.0158753,236688,11154.47581859979
1769239281.0534582,236649,11635.68209057631
1769239281.0858104,235961,12104.783740543522
1769239281.138425,234980,12561.579635283153
1769239281.1877847,234698,13005.280015844268
1769239281.2378972,234527,13434.728668196754
1769239281.2779121,234497,13848.793589522185
1769239281.3391738,234469,14246.58103283978
1769239281.3790686,234370,14627.480326101675
1769239281.439451,234200,14991.118374414169
1769239281.4787505,234201,15337.303355127608
1769239281.539489,234252,15666.041673378528
1769239281.5788798,234327,15977.588671915339
1769239281.6390743,234415,16272.45637466567
1769239281.6790073,234499,16551.380997418928
1769239281.7400773,234587,16815.27676442629
1769239281.780267,234068,17065.11134255439
1769239281.8401716,232611,17301.533493043386
1769239281.879774,232099,17524.4645850481
1769239281.940054,231875,17733.212719488103
1769239281.9821312,231864,17926.991151971746
1769239282.0399227,231945,18105.28611785685
1769239282.0798059,231869,18267.960729535087
1769239282.140985,231656,18415.18388841029
1769239282.1864514,231581,18547.29847618547
1769239282.24134,231667,18664.792498882543
1769239282.2810488,231826,18768.37432706425
1769239282.3411784,232104,18859.041839047124
1769239282.3809538,232248,18938.08397121108
1769239282.4409714,232462,19007.00853143268
1769239282.4812624,232584,19067.44223127872
1769239282.5424154,232447,19121.00685368556
1769239282.5820208,231455,19169.044262878997
1769239282.642056,230188,19212.16654285936
1769239282.6819768,229950,19250.048312607825
1769239282.7423372,230032,19281.82777678723
1769239282.7817929,230177,19306.70869859786
1769239282.8423717,230317,19324.237511152824
1769239282.8817487,230234,19334.280828043968
1769239282.9430025,230131,19336.885243803237
1769239282.9826932,230175,19332.16630072382
1769239283.0434115,230448,19320.3384928655
1769239283.0827498,230671,19301.819922134393
1769239283.1432393,231054,19277.283353246075
1769239283.18753,231247,19247.629595742845
1769239283.2430096,231542,19213.907025302928
1769239283.2827978,231653,19177.209138403854
1769239283.3443108,230537,19138.416834861226
1769239283.3839393,229575,19097.706218505667
1769239283.444443,229149,19054.309594373448
1769239283.4837196,229196,19006.871921557427
1769239283.5443513,229589,18954.03216525817
1769239283.5837717,229770,18894.801186584806
1769239283.6441119,229734,18828.593198924962
1769239283.6837304,229618,18755.032157607657
1769239283.745038,229658,18673.8004797759
1769239283.7848377,229788,18584.647295586197
1769239283.8453143,230120,18487.488691829472
1769239283.8847501,230344,18382.492240625408
1769239283.9452322,230700,18270.0856803797
1769239283.984663,230889,18150.906604935815
1769239284.045308,230271,18025.614580747366
1769239284.0850055,228975,17894.433003412185
1769239284.146512,227870,17756.67216493708
1769239284.190031,227749,17610.76468583138
1769239284.246131,227982,17454.881057282462
1769239284.285753,228243,17287.565360764285
1769239284.346235,228401,17107.96548764154
1769239284.4168937,228300,16915.735669061687
1769239284.451125,228312,16710.844258899833
1769239284.4858162,228437,16493.475935962542
1769239284.5473175,228797,16264.08251706752
1769239284.5867817,229044,16023.465083227666
1769239284.6470346,229470,15772.781503276592
1769239284.6867006,229719,15513.490869042744
1769239284.7469666,229904,15247.244811123004
1769239284.7866728,228815,14975.586450020963
1769239284.8472323,226784,14699.295076901939
1769239284.8868115,226221,14417.864810783838
1769239284.948115,226122,14129.8714558916
1769239284.9878993,226313,13833.842126097044
1769239285.0480347,226735,13528.812838936423
1769239285.087876,226835,13214.484988087825
1769239285.148203,226869,12891.11595143605
1769239285.1884599,226961,12559.313252462996
1769239285.247777,227362,12219.963386935393
1769239285.2877514,227655,11874.28598267393
1769239285.3490574,228174,11523.861341655296
1769239285.3887646,228473,11170.584534026268
1769239285.4494586,228953,10816.572277519232
1769239285.48868,229206,10464.051544071244
1769239285.5492342,227987,10115.048753539138
1769239285.5887341,226425,9770.713331163379
1769239285.6489742,225433,9430.814490474686
1769239285.688738,225415,9094.03344521374
1769239285.7500513,225872,8758.802315430192
1769239285.7948184,226315,8424.006845585865
1769239285.849961,226736,8089.221937151073
1769239285.889778,226851,7754.600007729919
1769239285.9501193,227238,7420.667167397611
1769239285.989775,227599,7088.219855875894
1769239286.0502374,228224,6758.338136528106
1769239286.092079,228618,6432.393666873269
1769239286.1510947,229164,6111.978986077922
1769239286.1972816,229488,5798.788518940544
1769239286.2506897,229964,5494.504253649716
1769239286.2907772,230331,5200.715110126927
1769239286.3510876,229979,4918.770078695179
1769239286.3914413,228767,4649.366251519379
1769239286.4510086,227789,4392.055906135242
1769239286.4906607,227750,4145.249746202732
1769239286.5521836,228073,3906.836885104826
1769239286.5929093,228411,3674.8430814846038
1769239286.6520019,228707,3447.695815851337
1769239286.6936007,228759,3224.181597580759
1769239286.7521977,228936,3003.310207002164
1769239286.7931957,229151,2784.2459954627157
1769239286.8519373,229601,2566.355089092507
1769239286.8918092,229906,2349.2790975086778
1769239286.9532795,230287,2132.936063137269
1769239286.993533,230521,1917.4512808750133
1769239287.0529897,230886,1703.0823672571116
1769239287.0926423,230786,1490.1287390676675
1769239287.153136,229357,1278.602705110887
1769239287.1934936,228723,1067.726300207695
1769239287.2530038,228663,855.9194289467964
1769239287.2927191,228848,641.3791026411377
1769239287.354214,229263,422.6133063202787
1769239287.3936296,229404,198.64694524356506
1769239287.454317,229437,-31.038118113746865
1769239287.4940624,229555,-266.66607173132405
1769239287.5542321,229904,-508.21537440300966
1769239287.5938644,230176,-755.354379474929
1769239287.6540182,230619,-1007.4035048903917
1769239287.6936305,230885,-1263.3626161214731
1769239287.7551446,231233,-1521.9867910843493
1769239287.7948003,231492,-1781.8797483578976
1769239287.8552418,231057,-2041.6615626374216
1769239287.8949373,229982,-2300.356889626016
1769239287.9551864,229164,-2557.8135034543907
1769239287.9945877,229136,-2814.6697355304113
1769239288.055247,229343,-3071.832434601354
1769239288.0947173,229592,-3329.9675360643264
1769239288.1562698,229754,-3589.3241039517543
1769239288.1963315,229776,-3849.7992338806107
1769239288.256073,229920,-4111.058996679479
1769239288.2956011,230184,-4372.580397093118
1769239288.3560529,230606,-4633.59555915129
1769239288.3957462,230916,-4893.042272343688
1769239288.4561858,231318,-5149.595792193119
1769239288.495588,231536,-5401.75860636982
1769239288.5571387,231845,-5647.966841492601
1769239288.5967526,232102,-5886.67389606902
1769239288.6568847,231822,-6116.466283959325
1769239288.6978657,230765,-6336.387018672084
1769239288.757125,229803,-6546.365941015656
1769239288.79658,229742,-6747.265756081004
1769239288.8572495,229871,-6940.382922147103
1769239288.8966968,230066,-7126.9027597086915
1769239288.9577525,230234,-7307.684966084978
1769239288.9979036,230255,-7483.282858041248
1769239289.0580964,230352,-7654.033346118546
1769239289.1067877,230582,-7820.100458309077
1769239289.158005,230958,-7981.423330498605
1769239289.1976566,231234,-8137.657326023693
1769239289.2579224,231604,-8288.191055137228
1769239289.2977557,231824,-8432.217037702285
1769239289.3589435,232097,-8568.81991426044
1769239289.3995419,232325,-8697.055990479292
1769239289.4592144,232715,-8815.985766550191
1769239289.4987783,232609,-8924.718441229346
1769239289.5592048,231315,-9022.715966921754
1769239289.5986314,230815,-9110.261701399422
1769239289.6592698,230779,-9188.455604050569
1769239289.6995907,230889,-9258.694146669193
1769239289.7600498,231193,-9322.230303511356
1769239289.7996695,231339,-9380.006963376547
1769239289.860169,231378,-9432.676495098602
1769239289.9002206,231468,-9480.710054497998
1769239289.9601889,231687,-9524.445576576685
1769239289.9999003,231909,-9564.050487668317
1769239290.0603316,232222,-9599.48338286996
1769239290.1006668,232447,-9630.495906431617
1769239290.161193,232726,-9656.67264601284
1769239290.2051659,232946,-9677.485846047428
1769239290.2611399,233265,-9692.335666533136
1769239290.3005612,233507,-9700.573567118574
1769239290.3612437,233359,-9701.58406647539
1769239290.4017715,232613,-9695.040467276092
1769239290.4611602,231971,-9681.233089883479
1769239290.5016649,231988,-9661.101308557583
1769239290.5621457,232209,-9635.852395989423
1769239290.6021502,232430,-9606.545649339345
1769239290.6621995,232567,-9573.947429661186
1769239290.7017398,232539,-9538.595518320724
1769239290.7621863,232512,-9500.922504140228
1769239290.8030267,232583,-9461.323629856566
1769239290.863185,232813,-9420.115693340462
1769239290.9044046,232976,-9377.453823154267
1769239290.9629738,233233,-9333.29813747
1769239291.0036867,233397,-9287.43235954648
1769239291.063303,233661,-9239.497960161643
1769239291.104373,233807,-9189.031229919481
1769239291.1632109,232992,-9135.63483593028
1769239291.2049263,232174,-9079.368296311262
1769239291.2639704,231759,-9020.983133632077
1769239291.303639,231770,-8961.683618305675
1769239291.364092,231973,-8902.668475635572
1769239291.4043777,232096,-8844.821723059289
1769239291.4642024,232135,-8788.65724213842
1769239291.5040758,232084,-8734.416060375059
1769239291.564308,232142,-8682.164116759754
1769239291.60448,232244,-8631.811699725165
1769239291.6647716,232503,-8583.06980557198
1769239291.7046134,232672,-8535.40888661627
1769239291.7652166,232998,-8488.060619705398
1769239291.8047204,233177,-8440.051219415636
1769239291.8648784,233442,-8390.259009897787
1769239291.9049656,233610,-8337.48587601757
1769239291.964886,233240,-8280.59379022365
1769239292.005625,232251,-8218.830141752354
1769239292.0661294,231314,-8152.215227427608
1769239292.1075032,231195,-8081.57191637601
1769239292.1656542,231269,-8008.076569961815
1769239292.2061582,231449,-7932.760078688755
1769239292.266152,231565,-7856.300178761429
1769239292.3056927,231498,-7779.051430002597
1769239292.3660285,231422,-7701.174649609169
1769239292.4065642,231490,-7622.727551433159
1769239292.467212,231706,-7543.632413887838
1769239292.506586,231909,-7463.593623237491
1769239292.5671153,232222,-7382.062299352272
1769239292.6065233,232464,-7298.252352805025
1769239292.6667984,232736,-7211.190975763362
1769239292.7066252,232887,-7119.80019468404
1769239292.7671318,233151,-7022.980198423461
1769239292.8066814,233133,-6919.685483763627
1769239292.8677137,231754,-6809.2010201269695
1769239292.9075782,231023,-6691.629178641872
1769239292.9678435,230811,-6567.977015140948
1769239293.0081372,230941,-6439.653560865791
1769239293.067803,231211,-6307.940882486001
1769239293.107795,231350,-6173.761135462295
1769239293.1677473,231330,-6037.699723172875
1769239293.2081869,231308,-5900.149558016228
1769239293.268867,231419,-5761.400485830368
1769239293.3085916,231612,-5621.614286390418
1769239293.3688126,231982,-5480.745096442239
1769239293.4098957,232277,-5338.479529074867
1769239293.4686632,232620,-5194.246513079748
1769239293.5085492,232804,-5047.296046870475
1769239293.5689554,233065,-4896.802912028849
1769239293.6086226,233241,-4741.948482105065
1769239293.6700387,233491,-4581.967027337984
1769239293.7111173,233009,-4416.256004341377
1769239293.7701244,232001,-4244.6987789730565
1769239293.8125956,231844,-4067.9448020535942
1769239293.869751,232020,-3887.1863162005593
1769239293.9097223,232207,-3703.655003952811
1769239293.9697213,232475,-3518.347451622461
1769239294.0103755,232484,-3332.010120977754
1769239294.0712385,232404,-3145.2527437760905
1769239294.1107023,232418,-2958.674299981919
1769239294.1706889,232624,-2772.8617660310792
1769239294.2106476,232834,-2588.2855161324305
1769239294.2711623,233181,-2405.2117659697906
1769239294.3133574,233334,-2223.686904537167
1769239294.370823,233560,-2043.595159723991
1769239294.4105446,233688,-1864.7385263146828
1769239294.472044,233349,-1686.9552941050788
1769239294.513194,232478,-1510.3916982509095
1769239294.5721855,231840,-1335.800107068544
1769239294.61163,231861,-1164.4918597247145
1769239294.6723232,232101,-997.8986513483968
1769239294.7118819,232295,-837.1559526424464
1769239294.772109,232389,-682.9904896584017
1769239294.8115792,232313,-535.8218715936237
1769239294.8732493,232289,-395.90322166274535
1769239294.9135158,232379,-263.3800947979595
1769239294.9728227,232645,-138.23488342679406
1769239295.0141058,232862,-20.200177612807426
1769239295.0732174,233239,91.27674089581633
1769239295.1143777,233415,197.01054040478746
1769239295.1726315,233654,297.9983960946108
1769239295.2175753,233768,395.3154440069343
1769239295.2736073,233850,490.0213153980355
1769239295.3340771,233067,582.9766382197323
1769239295.3839629,231802,674.4465569076866
1769239295.4204028,231562,763.828650966407
1769239295.4742136,231631,849.9728740847036
1769239295.5140188,231726,931.7649074280093
1769239295.5742302,231912,1008.4195777354672
1769239295.6151533,231874,1079.4998898593935
1769239295.675123,231753,1144.8129031439112
1769239295.7151937,231776,1204.2913881246825
1769239295.7752392,232015,1258.0030189068243
1769239295.8145883,232219,1306.2524026606952
1769239295.8752284,232604,1349.6446447756264
1769239295.9146273,232802,1389.0772454212793
1769239295.9750886,233050,1425.6652381934061
1769239296.0146072,233171,1460.6285590877665
1769239296.076033,233374,1495.1985249913316
1769239296.1155903,233537,1530.5658019092493
1769239296.175525,233344,1567.807946226478
1769239296.216019,232239,1607.6245387031402
1769239296.2761812,231032,1649.8922876583954
1769239296.3156054,230802,1693.5197297400812
1769239296.376172,230769,1736.898937238657
1769239296.4155846,230859,1778.4901228139227
1769239296.4772167,230952,1817.0937442037496
1769239296.5165823,230854,1851.8689297768738
1769239296.5771775,230789,1882.241820146317
1769239296.616514,230895,1907.839511083869
1769239296.677242,231207,1928.5480900374862
1769239296.7166424,231428,1944.6084103593305
1769239296.77711,231778,1956.6298611188531
1769239296.8165534,231961,1965.5289443281176
1769239296.8780885,232214,1972.433717081585
1769239296.9174984,232388,1978.5855167910709
1769239296.9779947,232672,1985.2736212194416
1769239297.0177143,232925,1993.8053312005945
1769239297.0781496,233264,2005.492248730534
1769239297.1178942,232692,2021.5261821387996
1769239297.1776655,230938,2042.4990908322472
1769239297.2176719,230379,2067.86823029756
1769239297.2790601,230274,2096.128593655481
1769239297.3186023,230396,2125.5307224738904
1769239297.3789525,230716,2154.5992783648067
1769239297.4185932,230814,2182.305456486941
1769239297.4791014,230689,2207.999393458193
1769239297.5184846,230688,2231.2290899824898
1769239297.5790315,230894,2251.677776709424
1769239297.6186202,231112,2269.2470132834537
1769239297.6801438,231473,2284.135624182626
1769239297.7195814,231730,2296.8503738252057
1769239297.7799087,232041,2308.1570930228604
1769239297.819575,232245,2318.9955691212876
1769239297.879774,232529,2330.3955716496716
1769239297.919486,232661,2343.40490493529
1769239297.9799058,231583,2358.859713686742
1769239298.0195913,230572,2376.9034544686874
1769239298.0809524,230100,2396.7300847793335
1769239298.1205666,230188,2416.9298044339253
1769239298.1807573,230524,2436.0914090761553
1769239298.2206914,230781,2453.1993064701155
1769239298.2808056,230787,2467.6866182104413
1769239298.3204882,230723,2479.2640369169103
1769239298.3809237,230830,2487.7679567561795
1769239298.4207585,231019,2493.160647060295
1769239298.4822276,231400,2495.620319619653
1769239298.5217655,231702,2495.6115612801323
1769239298.5818048,232096,2493.8832690610902
1769239298.6214795,232358,2491.406002143445
1769239298.6820283,232656,2489.2806839788996
1769239298.7217681,232881,2488.6458197090756
1769239298.7821014,232263,2490.4972606161937
1769239298.8227727,231055,2495.268411719074
1769239298.8831897,230050,2502.398586253355
1769239298.9227445,229995,2510.402252418148
1769239298.9827538,230162,2517.4699164778767
1769239299.0226574,230431,2522.0554370226637
1769239299.0829256,230598,2523.0954429330773
1769239299.1227753,230561,2519.950573274118
1769239299.1827123,230551,2512.247676714695
1769239299.22407,230709,2499.787092852734
1769239299.2840474,231044,2482.591612945618
1769239299.3237035,231356,2461.000042273878
1769239299.3839839,231804,2435.6993752840435
1769239299.423626,232088,2407.6883002604172
1769239299.4841118,232387,2378.1819474668164
1769239299.523781,232603,2348.4890988247635
1769239299.584069,232909,2319.922393069075
1769239299.6246078,232875,2293.719717146039
1769239299.6846952,231205,2270.7102002099177
1769239299.725223,230309,2250.731140521645
1769239299.7848125,230017,2232.5279875964184
1769239299.8245597,230078,2214.351232851479
1769239299.884781,230361,2194.5806962156353
1769239299.9246657,230521,2172.0208896346758
1769239299.985947,230512,2145.9148284905605
1769239300.0262198,230468,2115.799228743841
1769239300.0860553,230678,2081.407232679763
1769239300.125736,230924,2042.710987125848
1769239300.185758,231449,2000.023326303402
1769239300.2258258,231764,1954.0543211731174
1769239300.2855585,232191,1905.865586505651
1769239300.3257263,232400,1856.7484533030217
1769239300.3865016,232714,1808.0932235210844
1769239300.426707,232911,1761.288028840182
1769239300.4870741,233304,1717.6699643473712
1769239300.526719,233184,1678.4698765726375
1769239300.58678,231705,1644.4865735329772
1769239300.6266613,231041,1615.5628962365147
1769239300.6868358,230903,1590.5625465888825
1769239300.7267096,231016,1567.9456304407606
1769239300.787998,231331,1546.2999378577272
1769239300.828126,231445,1524.5604767707464
1769239300.888107,231417,1501.9829563598532
1769239300.9275656,231429,1478.0032884395039
1769239300.987802,231673,1452.1847747109562
1769239301.0275598,231888,1424.2879092402504
1769239301.087764,232264,1394.3423978083626
1769239301.1276765,232524,1362.6606798171738
1769239301.188691,232802,1329.792149181353
1769239301.2293403,232976,1296.4337196895108
1769239301.2890885,233286,1263.3522105267232
1769239301.3286676,233217,1231.3149112051904
1769239301.3892298,231787,1200.791497596274
1769239301.4287307,231138,1171.4583647951956
1769239301.4890788,230986,1142.15643474797
1769239301.5297644,231094,1111.425560303925
1769239301.5897746,231386,1078.0088127265644
1769239301.6296668,231528,1041.0615849823375
1769239301.6899564,231449,1000.1190018760484
1769239301.7295291,231459,954.9384138816595
1769239301.7900903,231644,905.4259931340833
1769239301.8296745,231876,851.6975149478313
1769239301.8898225,232199,794.150110812113
1769239301.930762,232439,733.4694318226015
1769239301.9909108,232747,670.5805941731442
1769239302.0305138,232957,606.5765745378519
1769239302.0907567,233266,542.6510304690408
1769239302.1306694,232676,479.9449620009064
1769239302.1906767,231011,419.0801239787942
1769239302.2309017,230526,359.66310893833315
1769239302.2910051,230440,300.4707594765795
1769239302.3317528,230545,240.12823218558484
1769239302.3920515,230864,177.5760603233317
1769239302.4316716,230945,112.21704167799999
1769239302.4920013,230923,43.853883076775276
1769239302.5315337,230999,-27.46174309389151
1769239302.592163,231253,-101.47792446420591
1769239302.6317728,231487,-177.69016491706228
1769239302.692055,231886,-255.30299382051552
1769239302.73261,232125,-333.24395240385235
1769239302.7929626,232475,-410.2278931509585
1769239302.832452,232676,-484.8468653544582
1769239302.892763,233052,-555.6449875245576
1769239302.9327965,233178,-621.1786786146281
1769239302.9929583,231763,-680.299386996304
1769239303.0330014,230701,-732.7411306486031
1769239303.094073,230195,-779.3721990942457
1769239303.1336706,230203,-821.7470035726564
1769239303.1936815,230448,-861.4617682542181
1769239303.2339122,230644,-899.761259822521
1769239303.2940724,230743,-937.4510743241592
1769239303.3337636,230725,-974.9992363931347
1769239303.3938138,230895,-1012.649165088409
1769239303.4340868,231074,-1050.4378172977113
1769239303.4946682,231444,-1088.1484631066346
1769239303.534484,231723,-1125.2760647125072
1769239303.5946705,232132,-1161.0405754370372
1769239303.634765,232365,-1194.4452135745366
1769239303.6949751,232734,-1224.3596701301242
1769239303.7346187,232958,-1249.5986834044943
1769239303.7951005,233228,-1268.9924706851243
1769239303.8348043,232506,-1281.5701558121764
1769239303.8958745,231080,-1287.020422535375
1769239303.9361725,230757,-1286.0766959706243
1769239303.9957469,230824,-1280.2321222116993
1769239304.0354774,231035,-1271.0721957893784
1769239304.0960245,231401,-1259.864081092664
1769239304.13564,231468,-1247.4656710156848
1769239304.1956568,231444,-1234.432271066962
1769239304.2358074,231530,-1221.1751428084015
1769239304.297098,231804,-1207.9860612712546
1769239304.336717,232035,-1194.9582492997145
1769239304.3969543,232468,-1181.929624972683
1769239304.4366288,232756,-1168.4728129801094
1769239304.4969075,233112,-1153.9357698427054
1769239304.536666,233290,-1137.532417231725
1769239304.597191,233622,-1118.4353670101157
1769239304.6366858,233470,-1095.8745580018817
1769239304.6980443,232253,-1069.4345710236296
1769239304.7377238,231816,-1039.4698462320955
1769239304.7979803,231862,-1007.0610493173348
1769239304.837606,232071,-973.4913476828867
1769239304.8979034,232447,-939.8170567595605
1769239304.937719,232536,-906.7379379341619
1769239304.998046,232420,-874.6990316518076
1769239305.0375903,232394,-844.0803912674716
1769239305.098742,232536,-815.2564904271098
1769239305.1386676,232739,-788.5068663920212
1769239305.1989381,233073,-763.9114215938124
1769239305.238543,233336,-741.3006314072966
1769239305.2987738,233614,-720.274542289199
1769239305.3387325,233783,-700.2752646148795
1769239305.3989804,233184,-680.7723274805544
1769239305.4386814,232191,-661.6476469852793
1769239305.5000942,231485,-643.5313017170273
1769239305.5396388,231508,-627.6822033207184
1769239305.5999157,231716,-615.4731077327093
1769239305.6393702,231980,-607.9391453586634
1769239305.6998305,232059,-605.6477688466246
1769239305.7399857,231983,-608.8076586663644
1769239305.7999773,232032,-617.4253059238781
1769239305.8394506,232174,-631.3541156178682
1769239305.900713,232499,-650.2302273078126
1769239305.9409456,232735,-673.4044671719109
1769239306.0006979,233085,-699.9431627764964
1769239306.0403528,233340,-728.6789357157188
1769239306.1008112,233634,-758.2797343003333
1769239306.1411471,233530,-787.3688908992355
1769239306.200705,231965,-814.8977842820611
1769239306.24094,231187,-840.7030056496397
1769239306.3018918,230906,-865.5782342416244
1769239306.3416493,230966,-890.7237999025966
1769239306.4016843,231222,-917.1945515983768
1769239306.4419715,231403,-945.639590959144
1769239306.5016232,231390,-976.2921639338695
1769239306.5417373,231391,-1009.1101321726686
1769239306.6020238,231576,-1043.8756669443749
1769239306.641594,231770,-1080.1757890987628
1769239306.7030618,232136,-1117.348370301078
1769239306.7424328,232418,-1154.4620168014521
1769239306.8029695,232767,-1190.3470040820298
1769239306.842385,233026,-1223.66781494559
1769239306.9027915,233345,-1253.0045877179193
1769239306.9424365,233534,-1276.9318390915823
1769239307.0026357,232508,-1294.2552644190073
1769239307.0431054,231633,-1304.4868518197814
1769239307.1039867,231256,-1308.0847273963664
1769239307.1436906,231366,-1306.1157243481318
1769239307.2036674,231656,-1299.7076515596377
1769239307.2434313,231929,-1289.7050446544383
1769239307.3038266,232026,-1276.6080829484642
1769239307.3433533,232057,-1260.6897495489522
1769239307.40398,232194,-1242.117423488837
1769239307.44456,232395,-1220.973086370415
1769239307.5049784,232738,-1197.1999428136078
1769239307.5444255,233037,-1170.5519496287295
1769239307.604976,233431,-1140.587529566331
1769239307.6444342,233677,-1106.7093322872083
1769239307.7046628,233976,-1068.239234333817
1769239307.7445598,234194,-1024.4979418754826
1769239307.8051484,234224,-974.8896743759803
1769239307.8457549,233566,-919.0973024056744
1769239307.9057593,232948,-857.3859636667823
1769239307.945658,232994,-790.6816820438635
1769239308.005698,233280,-720.2245945338112
1769239308.045362,233537,-647.1470539746509
1769239308.1056828,233693,-572.3253563197862
1769239308.1454318,233668,-496.4561775389729
1769239308.2055519,233660,-420.18739268550195
1769239308.2466292,233761,-344.1768007543301
1769239308.307102,234033,-269.0315740040411
1769239308.3464515,234252,-195.2053182637398
1769239308.406924,234606,-122.94417693858036
1769239308.4463887,234775,-52.29425160895808
1769239308.5069098,235011,16.84116439659369
1769239308.546363,234884,84.59580478579066
1769239308.6078377,233954,150.8927110208897
1769239308.6472995,233630,215.13260455594465
1769239308.7079275,233679,276.2385990599672
1769239308.7474134,233797,333.0548347136211
1769239308.8079574,234089,384.66009107866887
1769239308.8473852,234150,430.4621073795029
1769239308.9078817,234142,470.1362742670997
1769239308.9473364,234166,503.50494136898885
1769239309.0084136,234339,530.499602808401
1769239309.0485399,234479,551.207155877718
1769239309.1091988,234802,565.9183730612314
1769239309.1484156,234979,575.1474406903624
1769239309.2086687,235286,579.6103269140928
1769239309.2489657,235444,580.1729869707021
1769239309.3086505,235592,577.7791904849436
1769239309.3482811,235050,573.2857865209274
1769239309.4097104,234141,567.134043370308
1769239309.4495173,233993,559.1202599656116
1769239309.5101142,234051,548.6181991604675
1769239309.5493438,234170,535.0077207891827
1769239309.6098137,234354,517.9004777499763
1769239309.6492753,234350,497.16288656774833
1769239309.709995,234300,472.83477633361747
1769239309.7493634,234346,445.0361386092436
1769239309.8108945,234522,413.9688939205461
1769239309.8504417,234717,379.98563915314855
1769239309.9104958,234989,343.6364975187013
1769239309.9505482,235206,305.6684140450732
1769239310.010453,235409,266.9813506931246
1769239310.0506365,235564,228.55595264064206
1769239310.110537,235772,191.38977339427643
1769239310.152096,235560,156.41446416984166
1769239310.211636,234535,124.23645399693365
1769239310.2515562,234223,94.81470474560993
1769239310.3114138,234224,67.53399836108773
1769239310.3516345,234306,41.62404238963401
1769239310.4117644,234456,16.454811690351303
1769239310.4513922,234513,-8.389853695219728
1769239310.5118213,234457,-33.154447178332774
1769239310.5523975,234477,-57.99562365318302
1769239310.6130557,234638,-83.00042295357996
1769239310.6524057,234813,-108.12592875531838
1769239310.7127373,235139,-133.13687268730936
1769239310.7524984,235317,-157.58662291988563
1769239310.8129005,235546,-180.8602821292505
1769239310.852275,235653,-202.25727681812074
1769239310.9139168,235866,-221.06095226906217
1769239310.9534142,235998,-236.5747160218922
1769239311.013417,235763,-248.19424076395825
1769239311.0535638,235160,-255.61324446006864
1769239311.1136022,234824,-259.03336311738036
1769239311.1532524,234845,-259.10630015736126
1769239311.2139342,235004,-256.63009181751585
1769239311.2533557,235123,-252.29045933535454
1769239311.3144956,235150,-246.59817246986566
1769239311.354357,235106,-239.9531465933726
1769239311.414591,235182,-232.70823978681
1769239311.454272,235323,-225.15522124076816
1769239311.5146983,235578,-217.45497522111188
1769239311.554374,235724,-209.59084481282878
1769239311.6148102,235941,-201.3855197405633
1769239311.6543067,236032,-192.55399821436006
1769239311.715946,236205,-182.758081382801
1769239311.755323,236099,-171.67097342026423
1769239311.815755,235218,-159.1733824415899
1769239311.85542,234935,-145.6293905639668
1769239311.9158986,234892,-131.85611039524053
1769239311.95531,234964,-118.78292618980811
1769239312.015549,235112,-107.18649378381568
1769239312.0564902,235132,-97.61127951684671
1769239312.1165164,235027,-90.41671404713311
1769239312.156288,235042,-85.86869987926119
1769239312.2168443,235187,-84.14642884291266
1769239312.2564278,235378,-85.26434315972816
1769239312.3168845,235603,-89.01221185223406
1769239312.3563297,235769,-94.95955160680329
1769239312.4165742,235951,-102.50635605219726
1769239312.45733,236039,-110.95166536152263
1769239312.5174174,235202,-119.68120654005138
1769239312.5573468,234476,-128.53066394008493
1769239312.6176736,234093,-137.9740375636984
1769239312.6574886,234120,-148.8775972189599
1769239312.7176325,234220,-162.09014120412493
1769239312.757305,234302,-178.19509017853616
1769239312.8173823,234236,-197.48463277932274
1769239312.8584063,234145,-220.05525875701642
1769239312.918546,234198,-245.88232695935574
1769239312.9583006,234335,-274.7975784939867
1769239313.0184433,234646,-306.40770648479366
1769239313.0585263,234848,-340.0385661147622
1769239313.1187494,235089,-374.76043054179115
1769239313.1591332,235214,-409.4757847069872
1769239313.2196603,235393,-443.0136089802781
1769239313.2593555,235076,-474.2543566532194
1769239313.3195257,233766,-502.4550405726956
1769239313.3595746,233261,-527.6484648615401
1769239313.4200113,233191,-550.5714141621355
1769239313.4593992,233201,-572.158265660741
1769239313.5194142,233360,-593.1645293295668
1769239313.5592904,233369,-614.0575356168486
1769239313.6209488,233266,-635.0608388380025
1769239313.6603503,233242,-656.2612600869842
1769239313.7206068,233439,-677.6324284902262
1769239313.7603145,233661,-698.951982787943
1769239313.8210206,234026,-719.7224483692218
1769239313.8604255,234213,-739.1676988688805
1769239313.9211788,234468,-756.3092110466524
1769239313.9603224,234609,-770.0713065674217
1769239314.0215962,234768,-779.3707448020559
1769239314.0617988,234160,-783.2776375033663
1769239314.1217806,233100,-781.3707933872107
1769239314.1613843,232931,-774.0029494261743
1769239314.2216299,233015,-762.0499829264253
1769239314.261768,233128,-746.4182803535706
1769239314.3214986,233318,-727.7948419596357
1769239314.361402,233330,-706.6281452358501
1769239314.4225636,233310,-683.2056895365316
1769239314.4622364,233409,-657.7363565889091
1769239314.5229423,233701,-630.3300914021808
1769239314.5623076,233993,-600.905966152853
1769239314.62261,234356,-569.1406882706069
1769239314.6623216,234577,-534.4977507004651
1769239314.7225983,234829,-496.3138330344908
1769239314.7633889,235001,-453.89358895970963
1769239314.8239117,235237,-406.5741931382452
1769239314.8633473,234897,-353.82423463064913
1769239314.923686,234045,-295.5127510316392
1769239314.963278,233926,-232.15782032751326
1769239315.023686,234050,-164.7595298778176
1769239315.063598,234203,-94.38701501118547
1769239315.1238892,234396,-21.949059413192483
1769239315.164448,234405,51.822829123445224
1769239315.2247684,234395,126.29875027509635
1769239315.2642667,234524,200.88691417463392
1769239315.3246162,234794,275.0757536381008
1769239315.3643427,235043,348.5268076765803
1769239315.4246356,235343,421.11418444080465
1769239315.4645169,235527,492.8964432653036
1769239315.5248446,235724,564.0490482941425
1769239315.5654254,235859,634.7917355163981
1769239315.625797,236065,705.3442023702635
1769239315.6653051,236018,775.8872089140984
1769239315.7261665,235233,846.3905690907364
1769239315.7656362,234988,916.3538291335701
1769239315.825606,235004,984.8329096083357
1769239315.8653197,235139,1050.7711856967214
1769239315.9256349,235286,1113.2598775066192
1769239315.9662666,235305,1171.6003047836334
1769239316.0267239,235222,1225.2431428030975
1769239316.0662458,235270,1273.7100145013057
1769239316.1268318,235462,1316.6108624257868
1769239316.1735966,235651,1353.7336388807828
1769239316.2265608,235879,1385.0966167903114
1769239316.2664714,236027,1410.9320454573515
1769239316.3265915,236199,1431.6328593665476
1769239316.3672113,236289,1447.6913122436406
1769239316.4280567,236496,1459.6553562227646
1769239316.4673116,236553,1468.1055670357457
1769239316.5277352,235749,1473.5073992070234
1769239316.5672367,235252,1475.8993662487742
1769239316.627815,235094,1474.7956396391555
1769239316.6675014,235111,1469.4630968262372
1769239316.7277255,235210,1459.2376155791958
1769239316.7682493,235253,1443.6692235645398
1769239316.8288403,235173,1422.51928591134
1769239316.868313,235175,1395.6907703461777
1769239316.928528,235321,1363.21111998297
1769239316.9685168,235469,1325.289316013587
1769239317.0285208,235679,1282.3599811516049
1769239317.0683682,235836,1235.0749344972087
1769239317.1283271,235988,1184.2571585725395
1769239317.1692972,236108,1130.8366896870111
1769239317.2294087,236283,1075.7987158088583
1769239317.2706127,236420,1020.1551805348048
1769239317.3293297,236704,964.9365541907623
1769239317.3692842,236750,911.1797304923723
1769239317.4301004,235731,859.7263169892715
1769239317.4693246,235102,810.814949119451
1769239317.5295575,234803,763.9485454408202
1769239317.570287,234772,718.2195375917256
1769239317.630513,234822,672.6972125566197
1769239317.6704319,234894,626.6341474339131
1769239317.7305865,234872,579.5148548577
1769239317.770301,234822,531.0093350645358
1769239317.8305378,234838,480.917208342374
1769239317.8713355,234917,429.16487131164723
1769239317.9318852,235114,375.8492361395974
1769239317.9713848,235261,321.2784765160953
1769239318.0316653,235525,265.97672227586855
1769239318.0711894,235680,210.65922372094195
1769239318.1319556,235972,156.19330342196542
1769239318.175949,236159,103.55900229243295
1769239318.2317286,236101,53.767968358548394
1769239318.271405,235397,7.632779613168823
1769239318.332416,234601,-34.578608368642485
1769239318.3723314,234479,-73.27152406180313
1769239318.4327605,234533,-109.22740002840969
1769239318.472776,234642,-143.19860735852913
1769239318.5328405,234772,-175.72195298043005
1769239318.5726628,234740,-207.11627413898128
1769239318.6327865,234686,-237.564600052582
1769239318.6723204,234723,-267.1898348270595
1769239318.7337327,234911,-296.03776554358217
1769239318.7732654,235081,-324.00434150949246
1769239318.8335855,235439,-350.7825294840396
1769239318.8732336,235614,-375.85078852516506
1769239318.9335985,235927,-398.51369365948506
1769239318.973316,236040,-417.97624651509335
1769239319.0336282,235276,-433.5453746327832
1769239319.0735378,234553,-445.01618454033996
1769239319.134508,234205,-452.8804662038514
1769239319.1767728,234234,-458.0904818993419
1769239319.234433,234433,-461.6401230899645
1769239319.2743556,234552,-464.2909129455918
1769239319.3344212,234575,-466.5289653682461
1769239319.3744826,234512,-468.6608950556563
1769239319.4345093,234561,-470.9039571287498
1769239319.4751632,234631,-473.3960785011532
1769239319.5357761,234850,-476.14855435119523
1769239319.5753393,235017,-478.9979439758958
1769239319.6357605,235308,-481.58920858184916
1769239319.6754498,235471,-483.39300537292945
1769239319.7356591,234813,-483.86546392770754
1769239319.7753294,233948,-482.8333288714488
1769239319.835756,233487,-480.7789316675567
1769239319.875696,233506,-478.669300973084
1769239319.9367168,233668,-477.51179815859575
1769239319.9766212,233812,-478.0346838705036
1769239320.0365143,233867,-480.621610810246
1769239320.076584,233833,-485.3960959134252
1769239320.1367476,233980,-492.30910056620974
1769239320.1830242,234142,-501.1427018604693
1769239320.236606,234442,-511.46374370601853
1769239320.2770658,234677,-522.6009768766869
1769239320.336535,234979,-533.6687338073964
1769239320.3775232,234955,-543.6539949434922
1769239320.4376733,233883,-551.7051218626001
1769239320.4771583,233479,-557.548324933207
1769239320.5375533,233614,-561.5009965558492
1769239320.5772839,233809,-564.0219063788797
1769239320.6374803,234144,-565.3480134675316
1769239320.677561,234308,-565.4119693324774
1769239320.737784,234364,-563.9225857918457
1769239320.7782855,234412,-560.5067960008699
1769239320.8387346,234641,-554.7813636420649
1769239320.8782728,234867,-546.318923550123
1769239320.9386537,235279,-534.585175396123
1769239320.9782867,235550,-518.9081095200836
1769239321.038766,235442,-498.5630927997934
1769239321.078403,234899,-473.039510176525
1769239321.1384676,234574,-442.32033939949525
1769239321.1843169,234659,-406.8765688097584
1769239321.2391987,234950,-367.36518063245853
1769239321.2793741,235195,-324.334549772054
1769239321.3396614,235388,-278.1369273268005
1769239321.3793738,235454,-228.994268236913
1769239321.4394116,235561,-177.09540578613777
1769239321.4792216,235714,-122.6404293980404
1769239321.5394962,235971,-65.81340974580695
1769239321.5805445,236172,-6.736267464680245
1769239321.6407487,236155,54.5088646934545
1769239321.680333,235725,117.72293221230508
1769239321.7407076,235484,182.38882063690406
1769239321.7805262,235595,247.67145791091122
1769239321.840547,235820,312.660363847527
1769239321.880464,235998,376.595676885172
1769239321.940437,236098,438.91474448866757
1769239321.9813015,236110,499.1827248828196
1769239322.0417798,236186,557.017791079138
1769239322.0814593,236344,612.08189909025
1769239322.141466,236594,664.1365870314061
1769239322.1845438,236811,713.0996343668897
1769239322.24133,236662,759.004424549685
1769239322.281516,236209,801.8018736801449
1769239322.3415785,236015,841.1568777827925
1769239322.3813837,236089,876.4866731147127
1769239322.4427967,236200,907.1928779592987
1769239322.4823344,236316,932.8334294928615
1769239322.5423632,236377,953.1532692254808
1769239322.5823984,236441,968.048897952701
1769239322.6423829,236557,977.5377212895708
1769239322.6824317,236643,981.7527743762538
1769239322.742549,236834,980.947159050164
1769239322.7823062,236944,975.4969211815492
1769239322.8435776,236609,965.8248961677897
1769239322.8834758,236160,952.1900169239615
1769239322.9436781,236064,934.5447811347314
1769239322.983261,236157,912.6620590266823
1769239323.0437458,236256,886.3747008561306
1769239323.0834312,236317,855.6904267575133
1769239323.1436913,236302,820.7698109465122
1769239323.1855428,236264,781.8575763372994
1769239323.244179,236307,739.237968566806
1769239323.2843413,236363,693.2430323889189
1769239323.3445733,236510,644.2873903359568
1769239323.3844538,236656,592.8986204656703
1769239323.4446712,236805,539.7245204809725
1769239323.4843283,236494,485.4535774021827
1769239323.544449,235878,430.58476023958855
1769239323.584296,235826,375.24021480142807
1769239323.6457188,235832,319.28692483862307
1769239323.6854343,235839,262.5900100682431
1769239323.745742,235913,205.1230578630823
1769239323.7852588,235944,146.98073144269696
1769239323.8455184,235963,88.36585672468357
1769239323.8853102,235985,29.556326335381996
1769239323.945563,236104,-29.10886273836603
1769239323.9853966,236151,-87.21960708214395
1769239324.046678,236259,-144.29903759109385
1769239324.0865707,236321,-199.82495548080942
1769239324.1466568,236470,-253.24426527855383
1769239324.1881204,236467,-303.99022285367994
1769239324.24673,235899,-351.60251858585445
1769239324.2863483,235764,-395.92498472949785
1769239324.3466835,235827,-437.09717268366194
1769239324.3863292,235848,-475.3354148820766
1769239324.4472406,235907,-510.79751780763115
1769239324.5021236,235882,-543.5796533654982
1769239324.5473342,235882,-573.7475343436934
1769239324.5873852,235919,-601.3557424386099
1769239324.6477258,236065,-626.4246104720693
1769239324.6874332,236144,-648.8996232428134
1769239324.7476263,236260,-668.6455332625352
1769239324.7871866,236294,-685.4771141287545
1769239324.8485806,236389,-699.1956186871612
1769239324.88826,236427,-709.6119271590744
1769239324.9487374,235975,-716.6250355173312
1769239324.9882698,235730,-720.3846095532662
1769239325.0486903,235791,-721.3184624072344
1769239325.0882995,235830,-719.9435121158825
1769239325.1486878,235916,-716.7004439122073
1769239325.188981,235895,-711.9256700380579
1769239325.249474,235798,-705.8998248763053
1769239325.2892349,235765,-698.9077431062849
1769239325.3494499,235873,-691.2317081117598
1769239325.3892722,235967,-683.0798386563725
1769239325.4494927,236140,-674.5302173037629
1769239325.489091,236183,-665.5290120354294
1769239325.5495703,236270,-655.933757299517
1769239325.5892873,236324,-645.5620736414156
1769239325.6502912,235989,-634.2665882588707
1769239325.6901944,235553,-622.098985995558
1769239325.7503097,235444,-609.4181694823598
1769239325.790339,235495,-596.765550394444
1769239325.850395,235583,-584.6403481470086
1769239325.8900478,235600,-573.3873783403803
1769239325.950462,235545,-563.2175000640893
1769239325.99015,235477,-554.2759231777133
1769239326.051554,235492,-546.6783453516314
1769239326.091322,235525,-540.4907253296324
1769239326.151328,235665,-535.6840598028335
1769239326.1974497,235771,-532.0971758590068
1769239326.251709,235946,-529.42537221099
1769239326.2912774,235990,-527.2438482967474
1769239326.3515673,236087,-525.0616467600493
1769239326.391058,236139,-522.3733011759148
1769239326.452579,236183,-518.6900960883562
1769239326.4920416,235691,-513.6316009832724
1769239326.552514,235122,-507.1358932057388
1769239326.592404,235068,-499.56759662067003
1769239326.6527507,235118,-491.51640991839236
1769239326.6922874,235123,-483.5212491293898
1769239326.7526221,235117,-475.9798824420927
1769239326.792796,235028,-469.18239103495455
1769239326.8533363,234921,-463.3650185870012
1769239326.8930497,234913,-458.73815665240977
1769239326.953387,235037,-455.44579774542143
1769239326.9931393,235127,-453.4907905365113
1769239327.0536036,235324,-452.69601935269844
1769239327.0931542,235404,-452.71154460256633
1769239327.1535287,235520,-453.05843716016346
1769239327.193304,235547,-453.1931549791631
1769239327.2544518,235670,-452.55670593599905
1769239327.2951977,235772,-450.5889918123982
1769239327.3545446,235698,-446.7511961489376
1769239327.3941157,235099,-440.6667093296556
1769239327.4545825,234559,-432.36132875694756
1769239327.4945517,234479,-422.32705581880106
1769239327.5545392,234458,-411.2848461929831
1769239327.5940185,234491,-399.9137780110778
1769239327.6546674,234463,-388.74901296581396
1769239327.6953657,234365,-378.19844043204535
1769239327.755891,234309,-368.59164795156147
1769239327.7951117,234358,-360.18863147892455
1769239327.855476,234548,-353.1192338567385
1769239327.8950937,234691,-347.3100458350923
1769239327.9555256,234864,-342.47061522484194
1769239327.9950876,234956,-338.13972144311685
1769239328.055522,235084,-333.7498298677208
1769239328.09651,235180,-328.6797586237906
1769239328.156427,235372,-322.27951441114993
1769239328.1975825,235519,-313.873177294576
1769239328.25667,235038,-302.8496150394508
1769239328.2960625,234553,-288.9122712278741
1769239328.3566463,234316,-272.2432488057379
1769239328.3960378,234352,-253.36402188432504
1769239328.4564865,234463,-232.85644540790295
1769239328.4971511,234512,-211.1858869696085
1769239328.5576072,234403,-188.69535960519258
1769239328.5970724,234363,-165.68702963449525
1769239328.6572247,234428,-142.45193971124954
1769239328.6970208,234566,-119.21125858444613
1769239328.7576344,234755,-96.04344166024619
1769239328.7970717,234895,-72.85758353340654
1769239328.8577077,235032,-49.42075407134711
1769239328.8980987,235125,-25.412521223133027
1769239328.9585083,235267,-0.471030336056686
1769239328.9980643,234990,25.734697992185236
1769239329.058627,234031,53.26844175125855
1769239329.0981271,233775,81.65455690549689
1769239329.158327,233719,109.97322783570259
1769239329.1991775,233785,137.23858840410054
1769239329.258258,233903,162.6536191632129
1769239329.2993531,233876,185.66931326487688
1769239329.3593705,233767,205.9251313396085
1769239329.3990705,233796,223.1655056651558
1769239329.4590802,233984,237.25446104213353
1769239329.4994564,234175,248.26316709553055
1769239329.5596073,234429,256.5191976585477
1769239329.5990777,234587,262.5855202968054
1769239329.659568,234759,267.19330747626833
1769239329.7000716,234899,271.16518256248725
1769239329.760513,234763,275.32288321000016
1769239329.80001,233983,280.2705580585032
1769239329.860601,233067,286.05372662010234
1769239329.9001122,232965,292.04041234046394
1769239329.9603992,232964,297.25593957770343
1769239330.0000463,233063,300.8157308705349
1769239330.0605261,233131,302.10822093752137
1769239330.10101,233058,300.78412092411605
1769239330.161442,232957,296.665419413457
1769239330.2025654,233068,289.682818189869
1769239330.2617013,233309,279.9308936168072
1769239330.301172,233532,267.76274526925425
1769239330.361574,233825,253.81337620952118
1769239330.400999,233996,238.9529493470386
1769239330.4612305,234169,224.19902341278586
1769239330.5024245,234308,210.620715846271
1769239330.5624878,234418,199.26733530422595
1769239330.6020846,233770,191.0220105773338
1769239330.6624327,232518,186.23026863111335
1769239330.702044,232267,184.40059079160744
1769239330.7624307,232224,184.4553579142835
1769239330.8020098,232335,185.26715420450446
1769239330.8622417,232491,185.96377790503098
1769239330.9032106,232469,185.98096244478765
1769239330.963715,232357,184.97772459256285
1769239331.0030642,232443,182.7347946631533
1769239331.0636358,232719,179.1819540535849
1769239331.1030416,232979,174.50619983594683
1769239331.163559,233316,169.1988592077708
1769239331.2073545,233509,164.01331147571426
1769239331.2633305,233710,159.86750910006748
1769239331.3041244,233872,157.7388444714292
1769239331.3645403,234141,158.6055059206739
1769239331.4040554,233795,163.36281068728556
1769239331.464488,232619,172.5077915839959
1769239331.5039897,232313,185.77458961407544
1769239331.5645843,232352,202.26211890620422
1769239331.6040502,232511,220.940418479253
1769239331.6645138,232748,240.98981703231107
1769239331.705047,232716,261.86113353649887
1769239331.765321,232556,283.16183432155793
1769239331.8049684,232629,304.52364253058465
1769239331.8652308,232860,325.63122304497523
1769239331.9051752,233109,346.3515372871171
1769239331.965228,233410,366.80201689040507
1769239332.0050044,233602,387.3291856856703
1769239332.065371,233808,408.43472765763323
1769239332.1061842,233859,430.6794874942626
1769239332.1661263,232741,454.4395543526238
1769239332.206487,232056,479.48672659478945
1769239332.2663434,231870,504.87494494575697
1769239332.306051,232020,529.3476523170107
1769239332.3664284,232304,551.8150842166373
1769239332.4060247,232402,571.56806393908
1769239332.4661999,232331,588.2279120364569
1769239332.5063193,232313,601.5873175192428
1769239332.5671053,232464,611.5422527672198
1769239332.6072042,232661,618.1480299646329
1769239332.6671221,233026,621.7004276391743
1769239332.707006,233274,622.7725074344577
1769239332.767094,233572,622.1800834564177
1769239332.806928,233737,620.893871896965
1769239332.8673503,233898,619.9370288390785
1769239332.9092484,233223,620.1958889156981
1769239332.968125,231910,622.0083740913674
1769239333.0080614,231655,624.8374245505431
1769239333.0680773,231715,627.5452877317462
1769239333.1082664,231865,628.9861902500261
1769239333.1680636,232083,628.3326973106998
1769239333.2080278,232058,625.1077945734642
1769239333.2682621,231997,619.0755764825017
1769239333.3082573,232044,610.1237572924185
1769239333.3692558,232272,598.2678414558912
1769239333.4092188,232469,583.7317173740745
1769239333.469098,232828,566.9965568208422
1769239333.509304,233030,548.7944688348606
1769239333.56946,233309,530.0506579890357
1769239333.6090991,233442,511.7940836232661
1769239333.669565,233710,495.0798096795726
1769239333.7090857,233554,480.9045411643599
1769239333.7705224,232081,469.89480607110124
1769239333.8100326,231405,461.82017933499685
1769239333.8705845,231250,455.57794304761154
1769239333.9108336,231306,449.74432073774193
1769239333.9701788,231565,443.07327009105745
1769239334.0107677,231602,434.6894363852032
1769239334.0705223,231523,424.04795175339257
1769239334.1102734,231520,410.79807165285786
1769239334.1710553,231702,394.7411934582254
1769239334.214213,231898,375.89805856800484
1769239334.2714825,232265,354.57733659298395
1769239334.3110652,232477,331.390179270383
1769239334.3717058,232808,307.2021131090311
1769239334.4110534,232945,283.0466709561735
1769239334.4713254,233191,260.03158987599454
1769239334.511863,233354,239.2652722709403
1769239334.572478,233340,221.78576038121275
1769239334.6120064,232379,208.33781481478928
1769239334.6726112,231321,198.95858245623893
1769239334.7120802,231210,192.81158874306485
1769239334.7723353,231427,188.6138390405899
1769239334.8120005,231619,185.21523302438408
1769239334.8724265,231714,181.8212326891165
1769239334.9120886,231579,177.91133419154846
1769239334.9735432,231520,173.08462281458773
1769239335.0130205,231609,166.99788587557083
1769239335.0732565,231929,159.45022242454513
1769239335.1130676,232157,150.50362437133828
1769239335.172956,232488,140.5162981550108
1769239335.2134795,232616,130.0849879621219
1769239335.2735236,232852,119.94774949970942
1769239335.313094,232989,110.90057376443434
1769239335.3746479,232111,103.61344696884971
1769239335.4143236,231139,98.21784073965435
1769239335.4744866,230691,94.04227989074573
1769239335.5140786,230750,89.88222602246903
1769239335.5743477,231059,84.5420154096074
1769239335.6140068,231222,77.19859127353455
1769239335.6745272,231221,67.43736888726133
1769239335.7140558,231157,55.09676059220532
1769239335.7754667,231312,40.153572207881425
1769239335.8150978,231505,22.745718121408753
1769239335.8756905,231883,3.2546955934465718
1769239335.9173074,232128,-17.652575243013086
1769239335.9754984,232491,-39.05445631997786
1769239336.0150254,232662,-59.85361525850936
1769239336.075541,232946,-78.87155111918356
1769239336.1201205,233091,-94.93159513763143
1769239336.1760533,232177,-107.06196157395503
1769239336.2160287,231078,-114.94723894426575
1769239336.2764988,230553,-119.22865623580117
1769239336.316511,230572,-121.22604984839442
1769239336.3765647,230811,-122.35166384651649
1769239336.4173071,230988,-123.70586366224772
1769239336.476555,231026,-125.99792918363269
1769239336.5160189,230961,-129.66156202333593
1769239336.577597,231080,-134.96901007348876
1769239336.617277,231268,-142.02971588504462
1769239336.6775358,231668,-150.70666336880942
1769239336.7175798,231929,-160.55349537310562
1769239336.7775078,232326,-170.83111818500558
1769239336.8181002,232494,-180.58676693587057
1769239336.8774302,232754,-188.7630121102845
1769239336.91702,232917,-194.29652901095747
1769239336.978059,233240,-196.1644004663406
1769239337.0182385,233023,-193.4446551546881
1769239337.078562,231367,-185.66590955953842
1769239337.1191294,230658,-173.34626849091447
1769239337.1779644,230570,-157.97083396286632
1769239337.2181811,230653,-141.34191085924886
1769239337.278546,230949,-125.03120599696814
1769239337.3180366,231018,-110.19001287237059
1769239337.379508,230980,-97.59536658679608
1769239337.4190285,231006,-87.78868144145935
1769239337.4795845,231281,-81.11531260532047
1769239337.518899,231542,-77.64544989131781
1769239337.579503,232011,-77.09778326096684
1769239337.6194599,232260,-78.83372913994802
1769239337.679168,232569,-81.93871683978405
1769239337.7189174,232696,-85.35489663737494
1769239337.780438,232968,-87.99252756292546
1769239337.8201034,233153,-88.78517474388374
1769239337.8805003,233175,-86.74011051928572
1769239337.9199522,232193,-81.15852480399614
1769239337.9802074,231082,-72.069229533206
1769239338.0201633,230957,-60.41564209537214
1769239338.0807006,231148,-47.62347399474386
1769239338.1212633,231356,-34.99845455923326
1769239338.1809597,231494,-23.476407217050788
1769239338.2211676,231364,-13.682730357196784
1769239338.2815356,231340,-6.084492568578207
1769239338.3215032,231471,-1.0548660674834083
1769239338.381433,231890,1.2235642763292096
1769239338.4213574,232139,0.8895818517650569
1769239338.4814727,232500,-1.580619566613275
1769239338.5217204,232632,-5.462397004102271
1769239338.5822966,232857,-9.901540620515357
1769239338.6223204,233009,-14.007955882871887
1769239338.682231,232273,-17.019762662897477
1769239338.7225635,231139,-18.699179958045168
1769239338.7825577,230516,-19.66617934060801
1769239338.8219233,230527,-21.205165470359862
1769239338.882372,230796,-24.688187421502803
1769239338.921859,230998,-31.1270816052436
1769239338.9831378,231013,-41.082290026050295
1769239339.0230246,230923,-54.80337617786487
1769239339.0833344,231071,-72.36166722304324
1769239339.1233573,231297,-93.63730934056473
1769239339.1831362,231770,-118.21427841494778
1769239339.2228673,232054,-145.31284721203465
1769239339.2833297,232403,-173.83480712596028
1769239339.3229697,232559,-202.48998668116573
1769239339.3842328,232803,-229.92690550478417
1769239339.424716,232977,-254.8220421424873
1769239339.4843183,232451,-276.01866811046574
1769239339.5240521,231129,-292.90838987341
1769239339.5844738,230079,-305.8827723078848
1769239339.6239157,229983,-316.298713224802
1769239339.6840827,230120,-325.8687166682654
1769239339.7247412,230323,-336.0591167165398
1769239339.7855213,230404,-347.8798421968155
1769239339.826629,230322,-361.9531314025119
1769239339.8853703,230376,-378.6470336767969
1769239339.9249313,230569,-398.11529581692383
1769239339.985294,231008,-420.2135499218209
1769239340.0252314,231300,-444.4106863265643
1769239340.0854201,231660,-469.80887193343614
1769239340.1248667,231850,-495.25443124652065
1769239340.1850276,232046,-519.4722108503125
1769239340.2259846,232242,-541.1770145171233
1769239340.286023,232200,-559.1622992747174
1769239340.325893,231015,-572.5544193603282
1769239340.3864796,229402,-581.3493447005199
1769239340.4259307,229182,-586.6946880349898
1769239340.486381,229288,-590.3802145640368
1769239340.5258245,229536,-594.0583328181306
1769239340.5864487,229767,-598.87767809627
1769239340.6269622,229748,-605.4897891086845
1769239340.6875253,229738,-614.2037433016415
1769239340.7284975,229911,-625.1074801478339
1769239340.7875123,230357,-638.0269694957005
1769239340.8284018,230699,-652.4167092692518
1769239340.8873646,231116,-667.3461775600889
1769239340.926832,231339,-681.5978188863467
1769239340.9871473,231551,-693.8143008149757
1769239341.0300965,231743,-702.634932244055
1769239341.088202,232031,-706.7627879713486
1769239341.1281152,231548,-705.0654621492135
1769239341.188083,229663,-697.0151999443059
1769239341.228006,229123,-683.2313988523297
1769239341.288341,229144,-665.2992497774869
1769239341.3278983,229401,-644.979310541475
1769239341.3883653,229756,-623.6525999220173
1769239341.4288146,229724,-602.2129531657635
1769239341.489451,229542,-581.2357975237595
1769239341.5298288,229642,-561.177493309751
1769239341.589227,230022,-542.348462204206
1769239341.6289113,230341,-524.7469797485787
1769239341.6894634,230758,-507.98854102472626
1769239341.7293115,230965,-491.36703931530127
1769239341.7893164,231190,-473.9841916660846
1769239341.8299415,231387,-454.8768513834732
1769239341.890233,230956,-433.16864531054495
1769239341.9302044,229567,-408.44605294733174
1769239341.9903023,228280,-381.2708335902531
1769239342.0317817,228288,-353.2176246354807
1769239342.09014,228633,-326.1910779050695
1769239342.1299741,228967,-301.6865252584375
1769239342.1900215,229121,-280.56363053568316
1769239342.2363198,229049,-263.1980472776967
1769239342.2911131,229087,-249.69748446156012
1769239342.3309686,229327,-239.98349432800163
1769239342.3915684,229850,-233.69782905400479
1769239342.43096,230227,-230.08217902450724
1769239342.4913828,230671,-227.98595572382305
1769239342.53088,230865,-225.9959177956879
1769239342.5913045,231123,-222.60400757226793
1769239342.6314957,231338,-216.3363522072433
1769239342.6924195,231404,-205.8349494073255
1769239342.732419,230142,-190.11105559162945
1769239342.7923503,228095,-169.1677205113322
1769239342.8328395,227755,-144.4142924049348
1769239342.8923151,227983,-118.11257562650444
1769239342.9334607,228245,-92.39596095364195
1769239342.9924068,228577,-68.7895757380971
1769239343.0333798,228551,-48.21896325523876
1769239343.0932608,228548,-31.196918914459694
1769239343.1331127,228700,-17.98036720608036
1769239343.1930695,229188,-8.541684819567648
1769239343.2327955,229546,-2.4467430567891566
1769239343.2932901,230063,1.1772766107800978
1769239343.3328831,230311,3.557036882198103
1769239343.3929005,230597,6.120664077320113
1769239343.4330099,230750,10.33590416224951
1769239343.4940865,231091,17.61294445511091
1769239343.5340586,231297,29.27850250017547
1769239343.5940447,229843,46.34178575124081
1769239343.6338253,228239,68.84938402869504
1769239343.6940584,227505,95.47334768912559
1769239343.7338912,227639,123.9757758321097
1769239343.794168,228140,152.11874009880046
1769239343.8339667,228449,178.27064133028537
1769239343.8950763,228544,201.4817497676814
1769239343.9350097,228520,221.2606893318429
1769239343.9950562,228736,237.38572725590126
1769239344.0350308,229074,249.8986299848434
1769239344.0951285,229695,259.21470330575033
1769239344.134902,230096,266.1985321489891
1769239344.1951332,230535,272.10041380012206
1769239344.2348926,230767,278.389849332762
1769239344.2951133,231026,286.5835877233198
1769239344.336064,231245,298.12212957129583
1769239344.3959181,231631,314.3266592066958
1769239344.436153,231337,336.34023693473335
1769239344.496304,229291,364.7010009770004
1769239344.5359995,228554,398.70336108314234
1769239344.5960364,228579,436.48919888490724
1769239344.6361225,228897,475.90456879226554
1769239344.6961546,229413,515.1913697655981
1769239344.737125,229479,553.1768934918948
1769239344.7974484,229332,589.1060963805436
1769239344.8375587,229411,622.3861270328172
1769239344.8970804,229807,652.5611374701995
1769239344.9370055,230193,679.4764179172305
1769239344.9971316,230680,703.3830368948213
1769239345.0372345,230966,724.9034518842603
1769239345.0969512,231239,744.9036611268205
1769239345.1380084,231438,764.3454148697574
1769239345.197962,231762,784.1971941720717
1769239345.2382758,231305,805.3222726344695
1769239345.2979014,229281,828.0195259473085
1769239345.3378358,228688,851.4344394284445
1769239345.398269,228768,873.7384160982408
1769239345.4379241,229099,892.9909044434482
1769239345.4982007,229612,907.7644274834374
1769239345.5388725,229717,917.2852203238589
1769239345.5992587,229665,921.2628108316894
1769239345.639998,229794,919.6474978047931
1769239345.699474,230219,912.5902406320807
1769239345.7388673,230629,900.5669266951207
1769239345.7991283,231163,884.4549762300935
1769239345.839036,231471,865.4887669663443
1769239345.8992023,231832,845.1286156007686
1769239345.9397752,232022,824.9089300263121
1769239345.9999819,232353,806.326448268361
1769239346.0397954,232606,790.7882998034487
1769239346.1004157,231380,779.4015379867358
1769239346.1399105,229896,772.3945575265958
1769239346.1999173,229076,768.6951656048143
1769239346.2400944,229112,766.2795585588102
1769239346.3000185,229500,762.9894987010558
1769239346.3401124,229802,757.1419455856806
1769239346.4012675,229944,747.6728658890128
1769239346.4427538,229880,733.9785831621546
1769239346.5012171,230053,715.7329509398145
1769239346.5408792,230330,692.8564233041313
1769239346.601292,230877,665.615882594991
1769239346.6415741,231214,634.7029968644226
1769239346.701378,231673,601.191821133466
1769239346.7417824,231894,566.4125634250343
1769239346.8023887,232195,531.8095496147322
1769239346.8428395,232389,498.8230282276928
1769239346.9020817,232787,468.8337890061752
1769239346.9440794,233014,443.1562257233852
1769239347.002471,231621,422.8034784266528
1769239347.041781,230286,407.8699451747793
1769239347.1023898,229650,397.17784787536186
1769239347.1420267,229724,388.71797448869495
1769239347.2030776,230092,380.4324614947315
1769239347.2449112,230371,370.73115512048895
1769239347.30319,230483,358.5907100221466
1769239347.3429093,230473,343.40260227705124
1769239347.4031475,230742,324.8309845780201
1769239347.4427536,231026,302.81604297645816
1769239347.5033262,231541,277.65334313727345
1769239347.542815,231849,250.02500853370682
1769239347.6043074,232266,220.93640944786532
1769239347.6440735,232482,191.59696631452186
1769239347.704651,232819,163.30382938663735
1769239347.744697,233062,137.36004845198198
1769239347.8043027,233517,115.04504063131041
1769239347.8442407,233827,97.61802796480842
1769239347.904242,232983,86.14653125826648
1769239347.943877,231836,81.00420711340449
1769239348.0040936,231228,81.48589176604042
1769239348.045034,231296,86.05295388291358
1769239348.1050477,231635,92.97827474006438
1769239348.144836,231953,100.84225763549625
1769239348.2050838,232073,108.660843167388
1769239348.2447245,232046,115.75918463675148
1769239348.3053648,232115,121.60982227356948
1769239348.346265,232332,125.79404513319948
1769239348.405394,232696,128.0854120089606
1769239348.4468913,232956,128.53039106131683
1769239348.5060477,233307,127.44234606867262
1769239348.5458927,233520,125.3391928335209
1769239348.6063683,233806,122.86886193733528
1769239348.6483712,234052,120.74784457755489
1769239348.7062597,234248,119.71510205573242
1769239348.7457101,233425,120.35215880136863
1769239348.8065662,232065,122.62116608432189
1769239348.8478208,231849,125.53638421620953
1769239348.9072635,231954,127.51348200003079
1769239348.9482183,232206,127.02980479256149
1769239349.0072744,232539,122.98595982155895
1769239349.0491147,232587,114.74989722462969
1769239349.1073585,232553,102.02338941753382
1769239349.1470022,232672,84.68662985109526
1769239349.207289,232965,62.78979043697338
1769239349.2483168,233226,36.637248598461156
1769239349.3081768,233606,6.827060854020735
1769239349.348577,233832,-25.778259909535727
1769239349.4086218,234167,-60.12262657584709
1769239349.4497213,234395,-95.03267302866793
1769239349.5083437,234718,-129.276104232871
1769239349.5483289,234927,-161.61147610992293
1769239349.6081758,235038,-190.85888909095786
1769239349.648729,234020,-216.13348920912549
1769239349.7092729,232493,-237.3557792169625
1769239349.7505386,232211,-255.57360249854042
1769239349.8092492,232319,-272.5354919120026
1769239349.848717,232471,-289.95405339522574
1769239349.909629,232760,-309.1293249174867
1769239349.9494112,232701,-330.91564545789197
1769239350.0092955,232623,-355.8537767388722
1769239350.0487347,232635,-384.31743721177065
1769239350.110244,232904,-416.51043149135535
1769239350.1504707,233118,-452.36282551590887
1769239350.2103362,233525,-491.4644003123179
1769239350.2496715,233761,-533.0694712966135
1769239350.3103135,234086,-576.1611640861281
1769239350.3497615,234236,-619.5534703590785
1769239350.4101565,234495,-661.9919569030416
1769239350.4503973,234680,-702.2223449671608
1769239350.5111804,234793,-739.0434369888036
1769239350.5526288,233769,-771.5161274670623
1769239350.611082,232270,-799.4645087313962
1769239350.6527328,231992,-823.7978124599553
1769239350.7113626,232107,-846.0920684835855
1769239350.7522306,232264,-867.8685061634901
1769239350.8111985,232506,-890.235230767607
1769239350.8508098,232440,-913.8750803914196
1769239350.912252,232313,-939.1896857477119
1769239350.9538777,232362,-966.4416769720167
1769239351.0122335,232648,-995.7324761313001
1769239351.0532708,232912,-1026.8784286962546
1769239351.112185,233361,-1059.3378212402997
1769239351.1540027,233609,-1092.2229377052488
1769239351.2120812,233852,-1124.3958755760916
1769239351.2516928,234011,-1154.6100782174342
1769239351.312186,234240,-1181.6151886321377
1769239351.352663,234449,-1204.2032148549752
1769239351.4132948,233837,-1221.3332426901013
1769239351.4543633,232676,-1232.509964812663
1769239351.5133817,231847,-1238.174004580022
1769239351.5536332,231835,-1239.5979412513275
1769239351.6129758,232046,-1238.3066715289856
1769239351.6536493,232256,-1235.5598425516296
1769239351.7134,232229,-1232.2148936113256
1769239351.7547545,232088,-1228.8567657439687
1769239351.8142467,232053,-1225.9511785862926
1769239351.8540328,232227,-1223.8584429153063
1769239351.914223,232617,-1222.7095850823926
1769239351.9548147,232919,-1222.2819131710123
1769239352.0143504,233254,-1221.9921520426306
1769239352.056302,233415,-1220.9954248251092
1769239352.113991,233611,-1218.3179680098067
1769239352.1547399,233791,-1212.9602428589817
1769239352.2149408,233395,-1204.0195401619699
1769239352.2549398,232091,-1191.0320502181323
1769239352.3150887,230885,-1174.451885845004
1769239352.3549702,230775,-1155.703934355735
1769239352.415317,230879,-1136.5987081747958
1769239352.4556894,231101,-1118.6902033643112
1769239352.5150902,231201,-1103.0340022633552
1769239352.5560043,231068,-1090.2532264820522
1769239352.6159608,230995,-1080.708531643628
1769239352.6564536,231168,-1074.5796571207472
1769239352.7159688,231595,-1071.7690043651917
1769239352.7559032,231876,-1071.7723624811838
1769239352.8160129,232245,-1073.6811274741783
1769239352.8557281,232429,-1076.2920957128579
1769239352.9172094,232639,-1078.244583128397
1769239352.9574354,232798,-1078.141705758716
1769239353.0170975,233140,-1074.6069347495413
1769239353.057993,232801,-1066.3550389676966
1769239353.1169581,230694,-1052.6305457488322
1769239353.1567807,229750,-1033.8831192309808
1769239353.2168822,229408,-1011.7653521889472
1769239353.2567658,229447,-988.3714109597082
1769239353.318251,229712,-965.5542620302351
1769239353.3591084,229748,-944.6460835948886
1769239353.4182303,229591,-926.4956885054689
1769239353.4576511,229589,-911.6424164223653
1769239353.5180702,229866,-900.3607183859032
1769239353.5583966,230146,-892.5557876199942
1769239353.6179585,230575,-887.6848791393884
1769239353.657925,230844,-884.7788973677949
1769239353.719137,231155,-882.5435890520272
1769239353.760316,231361,-879.492794792372
1769239353.8192606,231759,-874.0451851672157
1769239353.8587203,232097,-864.5585318619898
1769239353.9189868,231304,-849.497915908518
1769239353.959929,229987,-827.9540206783948
1769239354.0192223,229061,-800.1363842035613
1769239354.0597334,229074,-767.2356815027975
1769239354.1202335,229396,-730.7396336913358
1769239354.160099,229742,-691.8236875536672
1769239354.2201638,229938,-651.1625794933435
1769239354.2597947,229970,-609.043122572128
1769239354.3202274,230095,-565.5389601212
1769239354.3616178,230322,-520.5867517386597
1769239354.4201744,230736,-473.94326018112025
1769239354.4610558,231047,-425.1255001729866
1769239354.5213661,231431,-373.42411608493467
1769239354.5617175,231676,-317.9807401172184
1769239354.62093,232046,-257.8733601272993
1769239354.660927,232142,-192.19766938756902
1769239354.7212474,230647,-120.3757079443302
1769239354.762624,229795,-42.72747150833098
1769239354.8212125,229515,39.37823062585335
1769239354.8618722,229667,124.06089003146045
1769239354.9219663,230118,209.5612163505108
1769239354.9640577,230308,294.5699138933026
1769239355.0219855,230311,378.2152240543358
1769239355.0616403,230313,459.8676226390943
1769239355.121938,230548,539.0340132197753
1769239355.1619327,230798,615.4090913241685
1769239355.2230422,231206,688.9592530158433
1769239355.2647781,231467,759.945902813507
1769239355.3230803,231872,828.8841101263735
1769239355.3626256,231981,896.4590064583529
1769239355.4232528,230618,963.2119910757796
1769239355.4643297,229553,1028.9435689549694
1769239355.523218,229152,1092.4665432377828
1769239355.5635297,229279,1152.0724410370947
1769239355.6241589,229709,1206.203651313386
1769239355.6655846,229945,1253.842515778403
1769239355.7240305,230002,1294.5271719718994
1769239355.7636971,230019,1328.1596010295646
1769239355.8242228,230273,1354.8721066481598
1769239355.8664408,230540,1375.0433072586702
1769239355.9238863,231004,1389.363987049493
1769239355.963631,231265,1398.8501444722633
1769239356.0252428,231613,1404.7701462261534
1769239356.0655577,231824,1408.530537197037
1769239356.125398,232155,1411.5842707883508
1769239356.1755924,231716,1415.289966787452
1769239356.225267,229779,1420.4428163426978
1769239356.264592,229117,1426.6833880717552
1769239356.3253174,229032,1432.6211224393924
1769239356.3676078,229200,1436.6098513834597
1769239356.426041,229571,1437.3397707937988
1769239356.4657016,229705,1434.02591152869
1769239356.5264194,229709,1426.337136446488
1769239356.5676205,229842,1414.2291737852258
1769239356.6259775,230162,1397.8921246339137
1769239356.6672206,230462,1377.807813443786
1769239356.7262297,230874,1354.7802055585216
1769239356.7694595,231154,1329.8982945654438
1769239356.8272653,231462,1304.448445587009
1769239356.866656,231682,1279.8062554138478
1769239356.9271743,232079,1257.3630685349146
1769239356.9712808,232186,1238.4806097180967
1769239357.0272448,230664,1224.195084967282
1769239357.0666828,229723,1214.6185389556356
1769239357.1280475,229383,1208.7519150175635
1769239357.1747546,229503,1205.0164276541163
1769239357.2279286,229900,1201.9076752597607
1769239357.2692966,230127,1198.348711949631
1769239357.3282437,230292,1193.7250557018822
1769239357.3827093,230365,1187.7482532041415
1769239357.4387782,230633,1180.347104876261
1769239357.4933858,230873,1171.6562054744602
1769239357.5383224,231319,1162.0502234366274
1769239357.5760922,231613,1152.1593799605416
1769239357.6290002,232036,1142.8343552230986
1769239357.6686769,232258,1135.0692862505848
1769239357.7290957,232644,1129.9160626613937
1769239357.7698917,232898,1128.4224163755136
1769239357.8290877,232468,1131.495412570274
1769239357.869892,231480,1139.5371400652552
1769239357.930061,230825,1152.0789705518146
1769239357.971592,230856,1167.8672831303754
1769239358.0300508,231203,1185.3911630181979
1769239358.0698843,231499,1203.3760835193548
1769239358.1302106,231615,1220.929621364667
1769239358.1813731,231553,1237.4187790722228
1769239358.2302256,231616,1252.310103220311
1769239358.269638,231805,1265.1376560073738
1769239358.3309443,232145,1275.5935727349333
1769239358.3725324,232436,1283.6199599051386
1769239358.4309523,232773,1289.422772116375
1769239358.4713726,233010,1293.4210669826537
1769239358.5310428,233293,1296.1737022121586
1769239358.5710177,233167,1298.2704724985488
1769239358.63088,231779,1300.0023222463685
1769239358.673139,231198,1300.8905659942684
1769239358.7318044,231120,1299.6904628504499
1769239358.7717433,231322,1294.9439086537157
1769239358.8319821,231719,1285.483697905833
1769239358.8726788,231844,1270.6229335116202
1769239358.9320085,231818,1250.077079475291
1769239358.9729657,231866,1223.779399564573
1769239359.0325933,232105,1191.8129143316219
1769239359.088839,232335,1154.4699290405797
1769239359.1328223,232756,1112.315985878518
1769239359.1746616,233015,1066.2036216793122
1769239359.2329378,233381,1017.2254677193323
1769239359.2746453,233539,966.6220822035381
1769239359.3328192,233846,915.6845045019197
1769239359.373557,233610,865.6346990625483
1769239359.4342542,232020,817.2629480824908
1769239359.4736516,231374,770.4150758927047
1769239359.5339308,231239,724.021940048536
1769239359.5735834,231391,676.719062770426
1769239359.6339576,231700,627.3809855787695
1769239359.6736982,231787,575.3137716169069
1769239359.7339516,231727,520.1909785820044
1769239359.7748396,231747,461.89154725684557
1769239359.8351023,231967,400.44502616943214
1769239359.8765132,232227,336.1028457266558
1769239359.935322,232639,269.4166791105695
1769239359.9748793,232947,201.25744822934126
1769239360.0349023,233246,132.75822792625678
1769239360.0760078,233444,65.20105229569013
1769239360.1351578,233667,-0.09611756007523425
1769239360.1833413,233878,-61.8543657457452
1769239360.2364655,233913,-118.89471876256579
1769239360.2756073,232920,-170.35295762520823
1769239360.335841,231576,-216.1462344591856
1769239360.3778307,231339,-257.2317535441238
1769239360.4361851,231432,-295.18923749215776
1769239360.4758801,231626,-331.55412619994826
1769239360.5369568,231860,-367.48104938649107
1769239360.5779562,231847,-403.72201792030455
1769239360.6368275,231866,-440.7420737352415
1769239360.67678,232001,-478.81916998018096
1769239360.7373304,232406,-518.0097202203749
1769239360.7781096,232683,-558.0524962283887
1769239360.8369505,233076,-598.3508054063528
1769239360.8785238,233272,-638.0459771204661
1769239360.9380782,233558,-676.1251799741395
1769239360.9774888,233710,-711.5219228736838
1769239361.0382059,234061,-743.1748472939806
1769239361.0806308,234321,-770.0371050492371
1769239361.1382332,233769,-791.18788522196
1769239361.188743,232739,-806.2160669327219
1769239361.2378285,232070,-815.5925623740395
1769239361.2776425,232087,-820.5558104764287
1769239361.3389537,232355,-822.5735291726791
1769239361.3801367,232582,-822.8733285778986
1769239361.4391482,232656,-822.3143941073514
1769239361.4801862,232622,-821.4922195460413
1769239361.5392954,232715,-820.860968532631
1769239361.5794294,232877,-820.7512574802271
1769239361.6387098,233219,-821.3014346164492
1769239361.6785233,233450,-822.3943535713751
1769239361.7398252,233785,-823.661454855001
1769239361.7812672,233966,-824.5404776680055
1769239361.8401382,234252,-824.3485386815277
1769239361.8801587,234504,-822.3359814295889
1769239361.939842,234203,-817.7853154260566
1769239361.9801712,233149,-810.3304223819483
1769239362.0400937,232145,-800.3908632953157
1769239362.0820317,232060,-789.2298907679015
1769239362.1412618,232245,-778.4558698537079
1769239362.1863139,232517,-769.4485392668173
1769239362.2412646,232702,-763.1249740165066
1769239362.2805946,232712,-759.9870906056017
1769239362.3411062,232728,-760.2680877147822
1769239362.3828611,232879,-764.0276390386549
1769239362.441091,233189,-771.1248348044797
1769239362.4824007,233441,-781.1491757109793
1769239362.541806,233810,-793.407341139496
1769239362.5815547,234034,-806.966968978297
1769239362.6417577,234358,-820.7293809381349
1769239362.684483,234560,-833.5072355399701
1769239362.742115,234852,-844.0897327812465
1769239362.7837105,234471,-851.3668481877468
1769239362.843021,232681,-854.7546608927235
1769239362.8826542,231964,-854.7494171994716
1769239362.9429276,231795,-852.8504503070697
1769239362.9841573,231900,-850.8615464776195
1769239363.0432684,232280,-850.3057825637917
1769239363.0838318,232355,-852.1987518549951
1769239363.1430836,232272,-857.1099062857534
1769239363.1874971,232234,-865.3590895993515
1769239363.2437897,232431,-877.0982022599009
1769239363.2835803,232642,-892.2430888514268
1769239363.3441703,233057,-910.3876536003082
1769239363.386184,233360,-930.7714685850449
1769239363.4436393,233690,-952.3221938610576
1769239363.4836073,233859,-973.7664032075335
1769239363.5439894,234129,-993.7520743780291
1769239363.586165,234117,-1010.9550839016352
1769239363.644827,232548,-1024.3948204868873
1769239363.6856854,231552,-1034.002929869727
1769239363.7450573,231144,-1040.7824159373563
1769239363.7846215,231287,-1046.265643932583
1769239363.845179,231655,-1051.8437913947537
1769239363.886184,231860,-1058.4103475053662
1769239363.9447598,231813,-1066.3685541888929
1769239363.9862607,231757,-1075.8385100984337
1769239364.046131,231906,-1086.7952235958203
1769239364.087116,232152,-1099.0372026422297
1769239364.145827,232622,-1112.0805491563037
1769239364.1921372,232927,-1125.097156784395
1769239364.2461565,233245,-1136.9654608149315
1769239364.285945,233407,-1146.4059864906326
1769239364.3468723,233647,-1152.1136847602481
1769239364.3884406,233696,-1152.8553106351396
1769239364.4470375,232263,-1147.7439886627737
1769239364.4865162,231325,-1136.760785484192
1769239364.5471778,231026,-1120.9100963462668
1769239364.588341,231154,-1101.7089854072492
1769239364.6469593,231528,-1080.5607728473217
1769239364.6865523,231650,-1058.4423494486389
1769239364.7479107,231481,-1035.9474533480238
1769239364.7899582,231396,-1013.5073723657817
1769239364.848199,231578,-991.4856506621255
1769239364.8897972,231847,-970.0739628022053
1769239364.9478755,232265,-949.1570065538417
1769239364.98944,232515,-928.2732873420906
1769239365.0477123,232783,-906.688713772526
1769239365.0876045,232960,-883.5198403592824
1769239365.1488338,232634,-857.9013075855419
1769239365.191197,231345,-829.3511746224385
1769239365.2485363,229980,-798.2847470065493
1769239365.2886238,229899,-766.1248186162691
1769239365.3486717,230189,-734.6905851185921
1769239365.3885884,230545,-705.451371552337
1769239365.4485455,230737,-679.2470308304303
1769239365.4895167,230667,-656.4042590272664
1769239365.549506,230588,-636.972406079047
1769239365.5895932,230777,-620.8565978232319
1769239365.6495633,231215,-607.7451213565731
1769239365.6895952,231576,-596.9700081210674
1769239365.7498703,231972,-587.4864394734868
1769239365.7896729,232193,-577.9772844127302
1769239365.8501585,232457,-566.9977011090888
1769239365.890499,232566,-553.1060340948294
1769239365.9512534,231021,-535.1780219366863
1769239365.9956212,229623,-513.0366191858104
1769239366.0511086,228925,-487.7762892231243
1769239366.0904696,229026,-461.2811273454889
1769239366.150501,229438,-435.4039951227371
1769239366.195333,229705,-411.43621370072657
1769239366.2521007,229677,-390.0526971354109
1769239366.2916098,229605,-371.5391953434715
1769239366.3520088,229756,-355.97073769016475
1769239366.3928623,230017,-343.19965926312835
1769239366.4515154,230552,-332.7428594162927
1769239366.4915617,230861,-323.71115021519324
1769239366.5519845,231220,-314.8707354033379
1769239366.5931609,231372,-304.80020443781365
1769239366.6526883,231646,-292.03946036412935
1769239366.693491,231678,-275.1981243921683
1769239366.7530394,229867,-253.28896258014296
1769239366.7945073,228531,-226.39255699728378
1769239366.8530161,228078,-195.8894255599261
1769239366.8934493,228241,-163.82187232354343
1769239366.9528427,228781,-132.04621091849307
1769239366.993505,228980,-101.77958380008376
1769239367.0538056,229000,-73.62109536878607
1769239367.0945146,228971,-47.80582889834772
1769239367.1539857,229260,-24.35309720092841
1769239367.1992035,229576,-3.0216698669724003
1769239367.2537816,230149,16.791997529953335
1769239367.293453,230470,36.083943499989296
1769239367.3540056,230832,56.14992991384265
1769239367.3946915,231015,78.42007603838758
1769239367.455159,231330,104.32134016570701
1769239367.4964337,231192,135.16106993716673
1769239367.5545807,229253,171.73531582810705
1769239367.594589,228361,213.69635989601008
1769239367.6551971,228304,259.5370557798993
1769239367.697558,228632,307.3745437969606
1769239367.754969,229227,355.6877151958159
1769239367.7947788,229353,403.5732445719392
1769239367.855806,229222,450.58752323120626
1769239367.8987434,229230,496.4465159237216
1769239367.955666,229525,540.9345805421046
1769239367.9956963,229878,584.0310223646254
1769239368.0557983,230354,626.0337936646448
1769239368.0974922,230607,667.5635916333929
1769239368.1557126,230868,709.4520293869456
1769239368.2013958,231043,752.5972781434839
1769239368.2569435,230992,797.8345429199064
1769239368.2964709,229731,845.6500867778869
1769239368.3567667,227935,895.6114469127592
1769239368.397562,227768,946.0716488510719
1769239368.4568214,228137,994.7707791222207
1769239368.497112,228548,1039.764879057863
1769239368.5570092,228853,1079.8269542333073
1769239368.5983884,228790,1114.3439850349791
1769239368.657723,228779,1143.056409122717
1769239368.6982224,228990,1165.9016382462082
1769239368.7578397,229514,1183.082638491065
1769239368.799638,229916,1195.2115265151244
1769239368.857985,230393,1203.330011171149
1769239368.8974009,230629,1208.7950036997886
1769239368.9576876,230890,1213.109558858511
1769239368.9985113,231119,1217.7783386028927
1769239369.059031,231059,1224.1946147130586
1769239369.1027598,229715,1233.3408625221355
1769239369.1586077,228069,1245.2038428530911
1769239369.1999438,227912,1258.517451895525
1769239369.258712,228238,1271.3803628871872
1769239369.298539,228574,1282.1315528052382
1769239369.360325,228912,1289.7210890679874
1769239369.4027848,228925,1293.6481850344874
1769239369.4599905,229062,1293.7693987197363
1769239369.4994726,229266,1290.1726352944784
1769239369.5597577,229806,1283.208876303784
1769239369.6000922,230171,1273.581523148104
1769239369.660049,230686,1262.3501709775635
1769239369.7070642,230927,1250.8327721623657
1769239369.7624738,231260,1240.4618286660036
1769239369.8210163,231488,1232.6565253795982
1769239369.8823059,231946,1228.7689325613096
1769239369.922962,231576,1230.0045455712007
1769239369.9603543,229909,1237.0058595022317
1769239370.0007029,229361,1249.3027295440445
1769239370.061005,229446,1265.4368302860937
1769239370.1033335,229690,1283.6958878121122
1769239370.1618044,230165,1302.666025165178
1769239370.2055016,230312,1321.3903455294205
1769239370.261655,230387,1339.2767309698838
1769239370.3021002,230544,1355.9298030489688
1769239370.3619792,230907,1371.1103121636022
1769239370.403357,231222,1384.8029544950552
1769239370.4619758,231684,1397.259757714935
1769239370.5024374,231951,1408.9778838486172
1769239370.5631201,232248,1420.6153451167906
1769239370.604061,232493,1432.887587254544
1769239370.662705,232900,1446.5185110988111
1769239370.7032583,232874,1462.2022741673861
1769239370.7629561,231454,1480.2991076749836
1769239370.804981,230830,1500.3164801268858
1769239370.8640554,230766,1520.8719140531894
1769239370.9057527,230966,1540.26441786128
1769239370.96372,231366,1557.0128064748228
1769239371.0037181,231466,1570.0598273492026
1769239371.0638914,231489,1578.7073257797424
1769239371.1072266,231528,1582.456112879123
1769239371.16393,231794,1580.9552829283436
1769239371.2048423,232035,1574.0686154414318
1769239371.264694,232409,1561.9387963065674
1769239371.3044546,232636,1544.9877978756435
1769239371.3651128,232976,1523.8643690498034
1769239371.4068046,233167,1499.374047060038
1769239371.4648046,233437,1472.4098318268689
1769239371.5044503,232729,1443.7802082595385
1769239371.5647783,231276,1413.7578834042665
1769239371.6062846,230926,1381.6816371264283
1769239371.6656141,231015,1346.2269627983942
1769239371.7059484,231223,1306.0771797023233
1769239371.7657363,231582,1260.3329041401041
1769239371.8076425,231654,1208.5875057627445
1769239371.8656816,231692,1150.815605501165
1769239371.9071863,231789,1087.219967560778
1769239371.9660797,232103,1018.1966932695451
1769239372.005454,232361,944.3929848016406
1769239372.0670662,232736,866.735987125854
1769239372.108117,233016,786.4026000062349
1769239372.166624,233358,704.7570593495291
1769239372.2098713,233585,623.2717485905803
1769239372.2668867,233898,543.4485395990152
1769239372.3064559,233924,466.7334208154954
1769239372.366903,232302,394.1899960729902
1769239372.4078853,231376,325.9135466437609
1769239372.4678206,231064,260.8966253011633
1769239372.5096257,231182,197.60652962302686
1769239372.5676723,231570,134.64043659176693
1769239372.6074576,231764,71.0554110023686
1769239372.6679134,231755,6.366137322404185
1769239372.7102387,231737,-59.64082060532695
1769239372.7686238,231907,-127.02731430427498
1769239372.8084626,232136,-195.67516138290912
1769239372.8689961,232591,-265.1977928786696
1769239372.910639,232883,-334.88690316607574
1769239372.9684405,233325,-403.73985469079935
1769239373.0083628,233541,-470.5464310832995
1769239373.0689995,233820,-534.0030764221336
1769239373.1126788,234016,-592.8221315452433
1769239373.1695025,233770,-645.860555315585
1769239373.2093694,232597,-692.4356979973743
1769239373.2699287,231518,-732.7752089240527
1769239373.3105762,231427,-768.0868353291689
1769239373.369788,231721,-800.0048793092117
1769239373.410484,231983,-829.9456475274786
1769239373.4699543,232179,-858.8660651708532
1769239373.5111423,232078,-887.3525956431262
1769239373.5709786,232029,-915.8091980837606
1769239373.6137938,232128,-944.5607454840083
1769239373.6713388,232493,-973.7852667324674
1769239373.7124767,232794,-1003.3805636337031
1769239373.7709272,233203,-1032.9105792023804
1769239373.8135393,233375,-1061.6596846280515
1769239373.8708239,233647,-1088.7494237734875
1769239373.910509,233777,-1113.2506388870859
1769239373.9718113,232580,-1134.432459494819
1769239374.0143824,231381,-1152.2854471763405
1769239374.0719469,230735,-1167.8315422001258
1769239374.1130004,230854,-1182.7612592462497
1769239374.1715012,231259,-1198.7274312403028
1769239374.2119424,231536,-1216.8564910116243
1769239374.2719038,231559,-1237.6901934597581
1769239374.3148992,231475,-1261.3965854735948
1769239374.3728087,231542,-1287.9608897870278
1769239374.413296,231777,-1317.2059334775631
1769239374.4728053,232226,-1348.686213266381
1769239374.5124004,232599,-1381.5911525839358
1769239374.572645,233010,-1414.7537671071707
1769239374.6146796,233234,-1446.7580001754413
1769239374.6726353,233495,-1476.0847809166548
1769239374.7134137,233696,-1501.2341135501379
1769239374.7737553,232710,-1520.9473989958944
1769239374.8154423,231251,-1534.7236173954507
1769239374.8737009,230158,-1543.2773022648394
1769239374.913407,230130,-1548.3450512595605
1769239374.9735107,230421,-1551.9270748551637
1769239375.0133374,230756,-1555.612687424834
1769239375.074009,230874,-1560.3725472452852
1769239375.1162586,230782,-1566.6987506003295
1769239375.1745956,230800,-1574.8187783722367
1769239375.2146804,231007,-1584.7745802598388
1769239375.2745526,231494,-1596.3295620190906
1769239375.314515,231818,-1608.853478171878
1769239375.374917,232258,-1621.328872914186
1769239375.4153814,232487,-1632.4598200327764
1769239375.4758904,232754,-1640.812101123867
1769239375.5177,232954,-1644.9406135942502
1769239375.575622,232939,-1643.5010463603155
1769239375.61529,231583,-1635.5442914976088
1769239375.6758146,229660,-1621.138085465156
1769239375.7171636,229268,-1601.7281665539986
1769239375.7760034,229433,-1579.5760396939938
1769239375.8165736,229742,-1556.8141727022294
1769239375.8769126,230142,-1534.9484980574932
1769239375.9187486,230130,-1514.830315414643
1769239375.9765832,230075,-1496.8630239680026
1769239376.016316,230211,-1481.2072077135797
1769239376.0768094,230677,-1467.7716214056256
1769239376.1164033,231003,-1456.08595487801
1769239376.1765451,231509,-1445.2644600046524
1769239376.2165122,231759,-1434.0830656076057
1769239376.2777886,232060,-1421.1171211508904
1769239376.3174014,232248,-1404.8898079733228
1769239376.3776677,232629,-1383.959249260371
1769239376.4173582,232270,-1357.0161658440365
1769239376.4775746,230084,-1323.352617450482
1769239376.5172882,229196,-1283.5524640104607
1769239376.5779471,229077,-1239.4308228317382
1769239376.6173785,229361,-1193.1583368004406
1769239376.6787193,229946,-1146.500167464255
1769239376.7183678,230087,-1100.5448675267264
1769239376.7788894,229964,-1055.84233647825
1769239376.8183355,230002,-1012.6993545176168
1769239376.878599,230271,-971.2811765674576
1769239376.9182987,230591,-931.5115946629824
1769239376.9786885,231029,-892.9790460686597
1769239377.0194366,231280,-854.9426791097197
1769239377.0799742,231529,-816.436292831204
1769239377.1193879,231753,-776.399765432736
1769239377.1795158,231872,-733.777317569773
1769239377.2194803,230697,-687.7627262450616
1769239377.2796807,228350,-638.454068326884
1769239377.3195295,227822,-587.3919227803544
1769239377.3796933,227969,-537.07631373726
1769239377.4203606,228350,-489.89530937584806
1769239377.4806201,228777,-447.503934485618
1769239377.5205026,228700,-410.7869540496657
1769239377.580808,228473,-380.1344947189419
1769239377.620399,228535,-355.7180269340311
1769239377.6806672,228918,-337.4855425957826
1769239377.7203677,229279,-324.9859013811579
1769239377.7815876,229816,-317.27585958231015
1769239377.8213162,230087,-312.96576679501305
1769239377.8815606,230488,-310.3559841271084
1769239377.9212642,230666,-307.59526433823333
1769239377.9816206,230625,-302.8549440197008
1769239378.0214062,229156,-294.7045059191817
1769239378.0815682,226988,-282.80996193730505
1769239378.1213279,226706,-268.32344770045756
1769239378.1824782,227215,-253.20149933507912
1769239378.2225058,227668,-239.08777894651203
1769239378.2827156,228269,-226.79761531105586
1769239378.32243,228352,-216.38404245367414
1769239378.3827968,228378,-207.43247216845964
1769239378.4223657,228546,-199.3378356973464
1769239378.4825969,229038,-191.34758804546223
1769239378.5223134,229392,-182.45967457624073
1769239378.5838017,229993,-171.38150711848112
1769239378.623273,230356,-156.57456681008694
1769239378.6837645,230829,-136.35240487839033
1769239378.723449,231136,-109.00544174548001
1769239378.7836025,231205,-72.94897837063299
1769239378.823624,229699,-27.096592886574975
1769239378.8837678,227430,28.389724433911102
1769239378.9235563,227045,91.65440175318814
1769239378.9843802,227439,159.82898588301288
1769239379.024263,227917,230.20455967779418
1769239379.084648,228457,300.8303636912259
1769239379.1243918,228429,370.49434246720153
1769239379.1843846,228355,438.4244345932598
1769239379.2244842,228507,504.0286419596616
1769239379.2849288,228965,566.9106702745225
1769239379.3246264,229303,627.0216987577912
1769239379.3857706,229793,684.7115799794263
1769239379.4252887,230038,740.661288161972
1769239379.4856842,230369,795.7594076941936
1769239379.5254087,230607,850.9819506766756
1769239379.5859904,229689,907.1658214706789
1769239379.625472,227935,964.4450416833241
1769239379.6857972,226555,1021.6666419895865
1769239379.7253044,226665,1076.5372274612669
1769239379.786822,227280,1126.564245638864
1769239379.8270772,227758,1169.9443371771179
1769239379.8869154,227896,1205.7689857785056
1769239379.9285123,227821,1233.7450455992619
1769239379.986544,227950,1253.8977820270497
1769239380.0261915,228249,1266.4976560683822
1769239380.0867605,228816,1272.165963880634
1769239380.127381,229204,1271.9695854862691
1769239380.1875756,229667,1267.380027570054
1769239380.2274604,229990,1260.139721825908
1769239380.2873435,229617,1252.0329504836357
1769239380.3274457,228180,1244.3940156262256
1769239380.38761,226787,1237.4867098289208
1769239380.427552,226835,1230.415369904356
1769239380.4875548,227317,1221.8524646893065
1769239380.5284011,227814,1210.8705978305384
1769239380.588399,228253,1197.2349484651054
1769239380.628481,228363,1181.2769991582004
1769239380.688404,228628,1163.65632405077
1769239380.728187,228976,1145.22018726784
1769239380.7883358,229547,1127.0213600868667
1769239380.8282757,229971,1110.3640990217664
1769239380.8883986,230482,1096.7653931007214
1769239380.9292142,230821,1087.8486182555778
1769239380.9892673,231317,1085.2365697668563
1769239381.02936,231448,1090.4515120538263
1769239381.0895488,230086,1104.5883673899186
1769239381.1292813,229309,1127.7432797777917
1769239381.189372,229223,1158.8835953489024
1769239381.2293773,229442,1196.4036860804415
1769239381.2903717,229923,1238.7396776840442
1769239381.330298,230145,1284.6536186714843
1769239381.3904002,230334,1333.2245765164985
1769239381.4303248,230469,1383.7161179910333
1769239381.4904363,230909,1435.522380251551
1769239381.53038,231244,1488.2256058659284
1769239381.590461,231774,1541.653644511893
1769239381.6301632,232083,1595.8713759690409
1769239381.691516,232512,1651.1149341147195
1769239381.731523,232753,1707.7042510044687
1769239381.7913163,233182,1765.976739483717
1769239381.831256,233489,1826.2616677724386
1769239381.8912323,233002,1888.7611987620573
1769239381.9314804,232303,1953.2095473444338
1769239381.9913611,232078,2018.6250463506838
1769239382.0326118,232222,2083.5095192619724
1769239382.092292,232511,2146.287903342433
1769239382.1390455,232766,2205.6076918691583
1769239382.1923552,232917,2260.4043232529416
1769239382.232494,233012,2309.833395793503
1769239382.2925363,233188,2353.198785121612
1769239382.3322515,233398,2389.9472427093756
1769239382.3923457,233739,2419.713509956093
1769239382.4385026,233962,2442.3574753880957
1769239382.4935145,234258,2457.949813795202
1769239382.5331874,234453,2466.723717270334
1769239382.5932348,234767,2469.0343337210243
1769239382.6334305,234967,2465.334456555487
1769239382.6936126,234292,2456.0303474866682
1769239382.733526,233854,2441.160906886819
1769239382.7936254,233804,2420.2710453280324
1769239382.834414,233934,2392.6763845989926
1769239382.894473,234203,2357.7967918249137
1769239382.9343884,234359,2315.318087576187
1769239382.9944167,234442,2265.185721892688
1769239383.0342815,234478,2207.512243066412
1769239383.0945904,234611,2142.5099509189035
1769239383.1344583,234758,2070.4924309635403
1769239383.195507,234999,1991.9090420817672
1769239383.2353892,235173,1907.3653816525555
1769239383.2957077,235440,1817.6140713943655
1769239383.3351557,235591,1723.52577664454
1769239383.395525,235813,1626.0461625840871
1769239383.43551,235312,1526.0703111411676
1769239383.4957151,234631,1424.1561314039413
1769239383.5353744,234580,1320.3325686980477
1769239383.5963025,234725,1214.3129741781302
1769239383.6363485,234827,1105.8549319841559
1769239383.6965337,235036,994.9174752435523
1769239383.7364483,235062,881.6590139997403
1769239383.7964249,235096,766.3719079292364
1769239383.8363974,235145,649.4084343028494
1769239383.8963594,235330,531.1721336915806
1769239383.936318,235462,412.1569879603462
1769239383.9974248,235660,292.9659312684777
1769239384.0374975,235768,174.29111843354877
1769239384.0975075,235985,56.88165923699203
1769239384.1374242,236124,-58.47784519365513
1769239384.197389,236279,-170.99047926075684
1769239384.2373023,235714,-279.96949904921934
1769239384.2974222,235093,-385.11606901123827
1769239384.337498,235060,-486.6677748455415
1769239384.3984835,235178,-585.1600615322004
1769239384.4384382,235291,-681.0842794127061
1769239384.4986844,235450,-774.7478352854794
1769239384.5384367,235489,-866.2804792611604
1769239384.5984218,235461,-955.6997908701467
1769239384.6382132,235530,-1042.9823561302508
1769239384.6987114,235645,-1128.068110503337
1769239384.7393217,235757,-1210.8222222133231
1769239384.799728,235934,-1291.01526997492
1769239384.8392603,236091,-1368.3202876057949
1769239384.8996778,236272,-1442.3208416127677
1769239384.9399107,236434,-1512.5332377057282
1769239384.9992237,236601,-1578.4346962314946
1769239385.064109,236569,-1639.5155134496747
1769239385.111268,235701,-1695.4741259398124
1769239385.1554766,235465,-1746.497801412053
1769239385.2002637,235535,-1793.230238644938
1769239385.245997,235686,-1836.4121971263476
1769239385.3001215,235939,-1876.6086928049156
1769239385.3403318,236014,-1914.145053445913
1769239385.4007165,235922,-1949.1849776019885
1769239385.4413238,235891,-1981.8670703839725
1769239385.5014184,235954,-2012.3565870979473
1769239385.5411158,236034,-2040.7966786965044
1769239385.601579,236224,-2067.2459724056193
1769239385.6414347,236327,-2091.645074492587
1769239385.7017384,236545,-2113.816381619372
1769239385.741626,236637,-2133.4842454558952
1769239385.8016503,236674,-2150.324913984318
1769239385.8411355,236086,-2164.118343429458
1769239385.902673,235444,-2175.0136120675297
1769239385.9430687,235373,-2183.6450298916343
1769239386.0024936,235547,-2190.875401041169
1769239386.0421734,235713,-2197.429890286861
1769239386.1026335,235858,-2203.743842202485
1769239386.1423616,235800,-2210.0100777926937
1769239386.2025154,235669,-2216.3113596167664
1769239386.2435827,235671,-2222.72511290891
1769239386.303891,235778,-2229.308098260736
1769239386.3432643,235909,-2236.011759577734
1769239386.4036539,236104,-2242.6271229491877
1769239386.4431133,236260,-2248.776921058021
1769239386.5035975,236395,-2253.9460858081734
1769239386.5435176,236474,-2257.542374426085
1769239386.603566,235566,-2259.083873981707
1769239386.6441684,234895,-2258.5544022081085
1769239386.704411,234571,-2256.55787931734
1769239386.744223,234621,-2254.0380688499845
1769239386.8047817,234791,-2251.869521147915
1769239386.8448894,234903,-2250.62169958369
1769239386.9044166,234813,-2250.5523054755104
1769239386.9441752,234692,-2251.740477923692
1769239387.0045888,234616,-2254.201118609025
1769239387.0453377,234683,-2257.891781708922
1769239387.105631,234844,-2262.6394230306805
1769239387.14556,234975,-2268.072917640897
1769239387.205365,235231,-2273.608037008231
1769239387.245167,235346,-2278.470083533164
1769239387.3055944,235476,-2281.756537938774
1769239387.3453002,235433,-2282.5382707153067
1769239387.406787,234169,-2280.119643625121
1769239387.4462423,233435,-2274.4675805742136
1769239387.5068152,233167,-2266.3073932423226
1769239387.5461833,233187,-2256.6995892667987
1769239387.6066113,233396,-2246.57249490481
1769239387.6461046,233426,-2236.5052275262456
1769239387.706532,233283,-2226.7574081244347
1769239387.7465549,233139,-2217.427450245667
1769239387.8077042,233112,-2208.548627619293
1769239387.847155,233184,-2200.0610366838414
1769239387.9076328,233446,-2191.721462151043
1769239387.9471035,233625,-2183.0283839005697
1769239388.007547,233935,-2173.2134455989785
1769239388.049039,234048,-2161.295267177938
1769239388.107415,234259,-2146.170783381097
1769239388.1471446,234218,-2126.7240433064153
1769239388.208175,232851,-2102.112226997432
1769239388.248072,232082,-2072.2464351821586
1769239388.3085885,231877,-2037.8884567662355
1769239388.3483763,231958,-2000.1657515382224
1769239388.408622,232278,-1960.0517122753336
1769239388.4486203,232356,-1918.135543608312
1769239388.5086854,232254,-1874.6709139606448
1769239388.5481641,232150,-1829.7642668849521
1769239388.6096702,232194,-1783.4818040796692
1769239388.649479,232322,-1735.814269853699
1769239388.7096756,232666,-1686.5800727790188
1769239388.7504084,232899,-1635.3492935105728
1769239388.8095765,233257,-1581.442020791497
1769239388.8500617,233424,-1523.9926380956988
1769239388.909669,233024,-1462.1264754524668
1769239388.9499352,231937,-1395.3488758383457
1769239389.0103838,231023,-1323.9670417404986
1769239389.0504708,230982,-1249.0901215245551
1769239389.1103272,231290,-1172.1021461673645
1769239389.1501718,231567,-1094.1020338213334
1769239389.2103748,231734,-1015.7192933085564
1769239389.2513738,231597,-937.2385396414386
1769239389.3103607,231547,-858.8093616383411
1769239389.3503578,231643,-780.5474946407127
1769239389.411555,231921,-702.4684264740496
1769239389.4512508,232135,-624.3832136187016
1769239389.511796,232530,-545.8614582911337
1769239389.5511706,232794,-466.2440545456824
1769239389.6116097,232480,-384.7728486684746
1769239389.6510773,231201,-301.00116720403014
1769239389.7117307,229970,-215.3413571608469
1769239389.7515736,229835,-129.17211192391517
1769239389.8126462,230026,-44.26896254224407
1769239389.8522704,230316,37.87062041078575
1769239389.9125984,230567,116.30658674199269
1769239389.9520512,230551,190.60712424141536
1769239390.0126543,230541,260.66517897645093
1769239390.052391,230656,326.556853622087
1769239390.1126118,230998,388.5534017122765
1769239390.1520689,231267,447.20441497177706
1769239390.213716,231660,503.3614195083578
1769239390.253351,231912,558.1279587444656
1769239390.3135095,232249,612.7754292328062
1769239390.3530781,232428,668.6475233503782
1769239390.4134402,230816,726.8352386435022
1769239390.453239,229486,787.504683685898
1769239390.5135424,228789,849.5589650087273
1769239390.5541782,228824,911.1182362617733
1769239390.6144295,229152,970.3034265679429
1769239390.654061,229432,1025.745096309925
1769239390.7143078,229472,1076.6787971328506
1769239390.7543838,229441,1122.7741762741493
1769239390.8143747,229547,1163.9614240931512
1769239390.854114,229772,1200.3997679832514
1769239390.9143062,230193,1232.5475153868588
1769239390.955313,230510,1261.2200641409079
1769239391.0152435,230917,1287.563738113817
1769239391.0551143,231161,1312.961664786268
1769239391.1153414,231516,1338.9231887807239
1769239391.155208,231801,1366.9974366170684
1769239391.2154124,231165,1398.5961529328456
1769239391.2552257,229556,1434.4931911305614
1769239391.3153412,228066,1474.2130642823463
1769239391.3560328,227917,1516.0090708533176
1769239391.416395,228202,1557.6299204353268
1769239391.45608,228608,1597.1701289686646
1769239391.5163164,228911,1633.4171642571207
1769239391.556199,228873,1665.7710327038653
1769239391.6164505,228863,1693.9985374805617
1769239391.6561158,229030,1718.0659081373772
1769239391.716383,229459,1738.173641681123
1769239391.7570553,229799,1754.867663781214
1769239391.8175724,230296,1769.0680581051508
1769239391.8570914,230602,1782.0079686574495
1769239391.917557,230990,1795.1252917512727
1769239391.9570274,231230,1809.9405916842893
1769239392.017448,231626,1827.9636088235118
1769239392.0571563,231594,1850.6035332893393
1769239392.1184835,229527,1878.7622882030785
1769239392.1580865,228389,1912.1067168903296
1769239392.2185607,228065,1948.937420282135
1769239392.2583945,228297,1986.9569506229714
1769239392.318372,228940,2024.1210120172896
1769239392.358098,229229,2059.0604006186873
1769239392.418497,229234,2091.0412969998474
1769239392.458201,229192,2119.6691994982716
1769239392.5194654,229405,2144.6995355992376
1769239392.5598702,229682,2166.0683823172494
1769239392.6194022,230251,2184.012042071451
1769239392.6596737,230605,2199.1429603720107
1769239392.719476,231102,2212.415757082987
1769239392.7592635,231293,2225.005194055772
1769239392.8197753,231631,2238.1585580306396
1769239392.8599849,231836,2253.0832182084137
1769239392.9204006,230543,2270.692921217649
1769239392.9666393,229324,2291.046675167261
1769239393.0204017,228765,2313.035860871951
1769239393.0606105,228983,2334.8181590535746
1769239393.1209223,229559,2354.5973787317594
1769239393.160129,229873,2371.1364567640812
1769239393.2206266,229872,2383.7771957057225
1769239393.2612991,229779,2392.165850142406
1769239393.3216407,229862,2396.0447439507607
1769239393.3610818,230140,2395.2622270980405
1769239393.4212866,230650,2389.9181742644123
1769239393.4613342,231030,2380.483477062845
1769239393.5216172,231425,2367.7841668300343
1769239393.5611262,231669,2352.880075743335
1769239393.621641,231881,2336.920458379114
1769239393.6621296,231048,2320.897125023142
1769239393.7223902,228900,2305.059298087528
1769239393.762145,228302,2288.3548344767173
1769239393.82246,228481,2268.766529860629
1769239393.8620925,228837,2244.2877100078626
1769239393.9225602,229402,2213.559376900293
1769239393.9620495,229462,2175.970833119641
1769239394.0234404,229342,2131.4327442071285
1769239394.064374,229386,2080.0824789122635
1769239394.1235917,229774,2022.224756310061
1769239394.1640592,230121,1958.4677170458247
1769239394.2235355,230716,1889.8255544654205
1769239394.262966,231018,1817.7073077574694
1769239394.3233278,231385,1743.7966838050668
1769239394.363085,231566,1669.8806606134362
1769239394.4243948,231797,1597.7068936043102
1769239394.464938,230818,1528.7481128827646
1769239394.5245192,228517,1463.5885319130202
1769239394.5641193,227920,1401.3466227858491
1769239394.6245959,228001,1340.057457272864
1769239394.664088,228300,1277.6909799070652
1769239394.7242727,228785,1212.7952203320963
1769239394.7643125,228868,1144.616265914689
1769239394.825415,228754,1072.9140310519654
1769239394.8650851,228845,997.7037669299606
1769239394.9255853,229256,919.2094901395179
1769239394.965926,229650,837.9975659859226
1769239395.0257523,230159,755.0574427434879
1769239395.0664797,230493,671.7546153307535
1769239395.1256006,230820,589.6994572072706
1769239395.166045,231006,510.5855608231643
1769239395.226357,231371,436.0699704797526
1769239395.2659373,231176,367.67226197015776
1769239395.3265672,229148,306.36129215008623
1769239395.3664045,228251,251.89217726918295
1769239395.426516,228082,202.79621567211598
1769239395.4661,228331,157.16957664501368
1769239395.5276148,228893,113.41349982178988
1769239395.5679164,229110,70.5374358795719
1769239395.6273673,229183,28.089501838332474
1769239395.6670244,229276,-14.076777993941029
1769239395.7276366,229658,-55.91016618535513
1769239395.7673948,229982,-97.11014938306478
1769239395.827599,230512,-137.06877333427343
1769239395.8671756,230823,-174.88416077445558
1769239395.928532,231224,-209.446521699285
1769239395.9679832,231431,-239.56161706621384
1769239396.0283556,231811,-264.05327706640327
1769239396.0680778,232097,-281.8121757200183
1769239396.1285357,231400,-291.9450743100856
1769239396.183022,230307,-294.2049471131742
1769239396.2284045,229734,-289.3525579658313
1769239396.268367,229842,-278.9473657888681
1769239396.3294547,230264,-264.72429215935693
1769239396.3690267,230581,-248.09911696246564
1769239396.4293873,230685,-230.06375707224296
1769239396.4696357,230708,-211.3379993832903
1769239396.5293386,230851,-192.5157755661654
1769239396.5704775,231086,-174.07748510766598
1769239396.629368,231488,-156.31149273343107
1769239396.6699615,231781,-139.24737155690667
1769239396.7303836,232123,-122.66818074626246
1769239396.770772,232378,-106.17932603716933
1769239396.8304439,232715,-89.27486252895974
1769239396.8699517,232556,-71.43510919851256
1769239396.930422,231045,-52.483418779839404
1769239396.9706116,230546,-33.0848105541409
1769239397.0303698,230534,-14.696223433535598
1769239397.0709767,230744,1.0464617559248537
1769239397.1310968,231144,12.825576476501613
1769239397.1744854,231280,19.803047373555557
1769239397.2311141,231299,21.542872963341487
1769239397.271032,231418,17.84738457682992
1769239397.3311796,231723,8.71012496858249
1769239397.3712175,231997,-5.62223018542676
1769239397.4312897,232376,-24.61205353281442
1769239397.4720356,232640,-47.45606356104513
1769239397.5324824,232971,-73.15013898148891
1769239397.5748158,233180,-100.56971477010458
1769239397.6322126,233556,-128.53406958924296
1769239397.672743,233754,-155.84502195346016
1769239397.73254,232589,-181.51339310319295
1769239397.7730665,231524,-205.29147340363667
1769239397.8334641,231038,-227.96104448066217
1769239397.874351,231086,-250.96227821583238
1769239397.9335787,231363,-275.7671979153292
1769239397.9742198,231564,-303.48045127234195
1769239398.033457,231690,-334.7590367139903
1769239398.073289,231657,-369.92034745732883
1769239398.1333883,231812,-409.0631074877255
1769239398.1827934,231987,-452.09249085976296
1769239398.2345715,232353,-498.6676391557804
1769239398.2740438,232596,-548.1612945657981
1769239398.334251,232978,-599.6779615336272
1769239398.3745298,233206,-652.1122205752188
1769239398.4345927,233515,-704.2250909681849
1769239398.4745533,233695,-754.7269891711383
1769239398.5345376,233980,-802.3467429931005
1769239398.5739625,233468,-845.963724369408
1769239398.6354377,231792,-885.0344429417609
1769239398.6760101,231316,-920.0720901892416
1769239398.7350857,231333,-952.4562593985727
1769239398.7754412,231523,-983.7191806710995
1769239398.8350573,231878,-1015.0542700184221
1769239398.8765373,231954,-1047.1934335403953
1769239398.9355435,231887,-1080.5112104692896
1769239398.9762635,231929,-1115.2021126107502
1769239399.036528,232180,-1151.3253908442973
1769239399.0760908,232448,-1188.7197642397937
1769239399.1360302,232873,-1226.9265538617585
1769239399.1816182,233160,-1265.180594464449
1769239399.2362201,233471,-1302.474618890258
1769239399.2796144,233626,-1337.6746304290682
1769239399.3361773,233902,-1369.6277673250286
1769239399.384557,234090,-1397.2219266658228
1769239399.4372292,233578,-1419.5086578001183
1769239399.4774761,232545,-1436.0501794981503
1769239399.5373118,231854,-1447.2663337901163
1769239399.5771189,231933,-1454.3229412470919
1769239399.6374142,232221,-1458.584094430715
1769239399.6770003,232463,-1461.137198698986
1769239399.7374942,232443,-1462.6948628504192
1769239399.7779753,232315,-1463.7515907984646
1769239399.8383677,232305,-1464.7415501028022
1769239399.8795424,232495,-1466.0407756493084
1769239399.9381108,232890,-1467.834650810185
1769239399.9787102,233173,-1469.9948429318351
1769239400.0379586,233485,-1472.0779900523496
1769239400.0778728,233658,-1473.4203706289243
1769239400.1395156,233875,-1473.248411082088
1769239400.184326,233915,-1470.776777270197
1769239400.239058,232501,-1465.4838339591392
1769239400.2789176,231542,-1457.6267719911098
1769239400.3390763,231244,-1448.3998184994266
1769239400.3790073,231346,-1439.4340707767615
1769239400.439198,231688,-1432.181999177127
1769239400.4789546,231840,-1427.609116948919
1769239400.5402157,231780,-1426.2127835342872
1769239400.5800123,231730,-1428.2100606178897
1769239400.6404786,231957,-1433.6412500667586
1769239400.6799097,232204,-1442.3095214137581
1769239400.7401478,232687,-1453.6806028085664
1769239400.7800016,232949,-1466.8512315281066
1769239400.8402414,233285,-1480.621050367359
1769239400.881097,233438,-1493.62682306231
1769239400.9411535,233711,-1504.4628816955155
1769239400.981035,233907,-1511.7530100451283
1769239401.0412142,232698,-1514.3686809812498
1769239401.0818264,231416,-1511.9671292739847
1769239401.141381,230611,-1505.358317271605
1769239401.1877897,230600,-1496.189322353254
1769239401.2412434,230836,-1486.241927473851
1769239401.2823298,231059,-1476.9097659561485
1769239401.342447,231121,-1469.0658649879922
1769239401.3831933,231109,-1463.178192152648
1769239401.4420602,231267,-1459.4373080593607
1769239401.4823923,231532,-1457.7685663405512
1769239401.542489,231950,-1457.7648918324362
1769239401.5825763,232249,-1458.6523803290415
1769239401.6419935,232602,-1459.3450778750955
1769239401.6832166,232781,-1458.5596968751859
1769239401.7434814,233066,-1454.9358202390495
1769239401.7830374,233306,-1447.1157609197148
1769239401.8431973,232841,-1433.8745242916084
1769239401.8829513,231431,-1414.5221567883702
1769239401.943149,230174,-1389.433300347816
1769239401.9836235,230049,-1360.0830746086056
1769239402.044565,230301,-1328.3902077911162
1769239402.0846121,230622,-1295.9901319242915
1769239402.144348,230922,-1263.9410972904175
1769239402.1888254,230901,-1232.7815691771452
1769239402.2444208,231029,-1202.715083993275
1769239402.2842395,231224,-1173.7255207634485
1769239402.3442104,231650,-1145.5477021913591
1769239402.3839085,231936,-1117.6081139795674
1769239402.4451754,232340,-1089.0424125648021
1769239402.484867,232547,-1058.7805622006892
1769239402.545229,232883,-1025.6504456377504
1769239402.5849493,233137,-988.4569338593909
1769239402.645241,232666,-946.1255827437595
1769239402.684919,231391,-898.1063549781555
1769239402.7452009,230376,-844.8494560816154
1769239402.785045,230356,-787.7804344268064
1769239402.8463964,230725,-728.6633054991828
1769239402.886142,231087,-668.9437412569542
1769239402.9463317,231239,-609.5347133142498
1769239402.9858384,231182,-550.9561207039444
1769239403.0464728,231208,-493.54530005320464
1769239403.0860057,231382,-437.5382925173499
1769239403.1460028,231772,-382.99536430185213
1769239403.1872537,232038,-329.70199416527146
1769239403.2471259,232321,-277.1732507632996
1769239403.2870889,232498,-224.7471066557343
1769239403.3472054,232606,-171.69696170728517
1769239403.3869183,231590,-117.47178205438318
1769239403.4472044,229030,-62.33422750648919
1769239403.4868586,228378,-7.967942528321159
1769239403.5471559,228445,42.93065289530473
1769239403.58797,228801,87.75504465440986
1769239403.6482623,229346,124.69193776259468
1769239403.6880238,229480,152.84877627620753
1769239403.7482982,229510,172.0566606985628
1769239403.788634,229685,182.6020548289993
1769239403.8483822,230122,185.1462521441107
1769239403.88793,230516,180.78665072173257
1769239403.9482179,230978,171.0668538521519
1769239403.9891062,231258,157.88051572580642
1769239404.0492172,231617,143.32306624055573
1769239404.0891914,231694,129.5353591514116
1769239404.149185,229684,118.27834330733023
1769239404.1915278,228272,110.15450619253187
1769239404.249169,227759,104.3333343558065
1769239404.2889652,227959,99.23985624176899
1769239404.3490713,228483,93.46167644176002
1769239404.389909,228734,86.22554901464277
1769239404.4504306,228789,77.38281286720243
1769239404.4899638,228779,67.15440375096944
1769239404.5502973,229054,55.96220206270835
1769239404.5911856,229372,44.44630023861807
1769239404.6503456,229905,33.549694406741175
1769239404.6902575,230200,24.536974646319198
1769239404.751432,230581,18.90273284764173
1769239404.7914832,230779,18.227637508791666
1769239404.8513176,229693,23.883218053500688
1769239404.8912838,227960,36.404003954107296
1769239404.9512894,226964,54.96905579367578
1769239404.991171,227162,77.69877008514302
1769239405.0513687,227832,102.6043071032997
1769239405.0911872,228235,128.33989518434583
1769239405.1522057,228473,154.3166254424934
1769239405.193933,228436,180.43253098057642
1769239405.2522051,228646,206.81215942833674
1769239405.2924945,228981,233.7420331972612
1769239405.3521576,229582,261.76696721779376
1769239405.3919935,229910,291.7640837168679
1769239405.4523993,230313,324.8703916567768
1769239405.4922707,230548,362.3303796785992
1769239405.5533955,230041,405.2677559563146
1769239405.593211,228459,454.1984280426449
1769239405.6533456,227079,508.4433293109676
1769239405.692874,227204,566.1336155446805
1769239405.753354,227852,625.0520605488292
1769239405.7945879,228389,683.5243907747375
1769239405.8533492,228682,740.6666391496484
1769239405.8939052,228608,796.1398298891777
1769239405.9543042,228676,849.8270901495042
1769239405.9939306,228950,901.703790171039
1769239406.054537,229535,951.9426335472215
1769239406.0952067,229973,1001.0619696898178
1769239406.1545208,230500,1049.9398403223634
1769239406.201859,230828,1099.7075247808266
1769239406.2545724,229904,1151.4464430951098
1769239406.2951717,228648,1205.585624510563
1769239406.355215,228006,1261.4658592344954
1769239406.3957825,228285,1317.6248692541055
1769239406.4553726,229142,1372.5923125437887
1769239406.4960687,229679,1425.5253375484083
1769239406.5553625,230015,1476.2936098680723
1769239406.5950365,230069,1525.1843300070182
1769239406.6551502,230276,1572.6093189716512
1769239406.6959333,230570,1619.0039847502733
1769239406.756123,231130,1664.8945685239173
1769239406.795803,231526,1710.991364080786
1769239406.8562288,232173,1758.2065656946395
1769239406.897265,231986,1807.5422745025746
1769239406.95646,230472,1859.6297882541814
1769239406.9972951,229989,1914.122908388859
1769239407.0573423,230177,1969.7543429763095
1769239407.0986714,230536,2025.0322570877024
1769239407.1574209,231209,2078.800146948579
1769239407.201256,231390,2130.4017490432616
1769239407.2569714,231533,2179.547786007946
1769239407.2969728,231653,2226.087429385754
1769239407.3572223,232009,2269.9282179674688
