timestamp,ir_raw,ir_filtered
1769239870.9055989,240943,5.135861133709341e-06
1769239870.9056907,241008,-0.29220613521760086
1769239870.9057682,241047,-2.2751014399003715
1769239870.9058418,241103,-9.079044754013623
1769239870.9059312,241194,-25.421621825335517
1769239870.9225426,241267,-57.13110929600113
1769239870.9834259,241369,-110.7200799141519
1769239871.0238223,241469,-193.0109113866919
1769239871.083744,241609,-310.8035069529859
1769239871.1235378,241723,-470.5883317615552
1769239871.1831813,241558,-678.3499132033306
1769239871.223742,241341,-939.4903702851865
1769239871.2836947,241393,-1258.7444715234574
1769239871.3239188,241473,-1639.969846170834
1769239871.3836358,241582,-2085.928966906082
1769239871.4245524,241650,-2598.1893103192983
1769239871.4848995,241676,-3177.1211867196307
1769239871.524506,241711,-3821.940760875091
1769239871.5842557,241827,-4530.751693837816
1769239871.6244133,241917,-5300.573414596169
1769239871.6845462,242096,-6127.385296351902
1769239871.7244835,242188,-7006.202502677793
1769239871.784808,242286,-7931.192254140965
1769239871.824482,242375,-8895.815709592945
1769239871.884355,242130,-9893.003299751206
1769239871.9245782,241892,-10915.393626571575
1769239871.9856389,241890,-11955.512465935572
1769239872.0254436,241966,-13005.779237746063
1769239872.0855336,242143,-14058.456373557583
1769239872.125514,242235,-15105.67218297157
1769239872.1851985,242365,-16139.523403671934
1769239872.2252533,242384,-17152.21377154791
1769239872.285635,242441,-18136.193314474138
1769239872.3258128,242528,-19084.26590002862
1769239872.3859522,242609,-19989.652870030244
1769239872.4252794,242670,-20846.04863883288
1769239872.4866383,242767,-21647.6809862141
1769239872.526537,242822,-22389.358693928025
1769239872.586586,242565,-23066.552098031487
1769239872.6264858,242417,-23675.5240167503
1769239872.6864963,242582,-24213.35347914207
1769239872.7262561,242681,-24677.790504936973
1769239872.786634,242809,-25067.131741681413
1769239872.8265374,242897,-25380.20363666755
1769239872.8866518,242890,-25616.38667470473
1769239872.9262762,242876,-25775.650155801974
1769239872.987727,242927,-25858.557080343468
1769239873.0275152,242985,-25866.210611425427
1769239873.087738,243130,-25800.173434618482
1769239873.127695,243173,-25662.399056615952
1769239873.1874018,243336,-25455.18766758615
1769239873.2272615,243313,-25181.157665373874
1769239873.2873435,242939,-24843.289469515847
1769239873.3276684,242935,-24445.00840865157
1769239873.3873158,243012,-23990.10328496478
1769239873.4277465,243076,-23482.51844262261
1769239873.4882083,243187,-22926.224323250466
1769239873.5286367,243183,-22325.177481688555
1769239873.588935,243218,-21683.315189977675
1769239873.6287007,243247,-21004.548263564342
1769239873.6885507,243374,-20292.7178019233
1769239873.7284741,243444,-19551.53557068974
1769239873.7887542,243521,-18784.551530030574
1769239873.8285186,243597,-17995.149564843337
1769239873.8883116,243470,-17186.56764501885
1769239873.9287162,243170,-16361.980426854429
1769239873.9893954,243047,-15524.584607124789
1769239874.0294313,243096,-14677.545878687344
1769239874.0895908,243239,-13823.82909245681
1769239874.1298447,243290,-12966.07295203426
1769239874.1894064,243370,-12106.578158285074
1769239874.2295232,243388,-11247.348832529373
1769239874.289575,243386,-10390.137524037886
1769239874.3295867,243418,-9536.482060446078
1769239874.3897593,243462,-8687.71685242779
1769239874.4297354,243500,-7844.970533490037
1769239874.4904823,243562,-7009.1724795181
1769239874.5303469,243446,-6181.08560507095
1769239874.590521,243016,-5361.419782881647
1769239874.6304631,242946,-4550.962198699078
1769239874.690504,243079,-3750.522447964622
1769239874.7304661,243125,-2960.7461797143214
1769239874.7903664,243174,-2182.0405507472415
1769239874.8305223,243178,-1414.620594425051
1769239874.8904204,243127,-658.5733520919716
1769239874.9304872,243108,86.08725437175451
1769239874.9913557,243132,819.398153725516
1769239875.0315714,243174,1541.4596854699241
1769239875.0912917,243247,2252.4506334807897
1769239875.1314526,243318,2952.6301880192764
1769239875.1912382,243412,3642.3288859656464
1769239875.2316515,243150,4321.889612415416
1769239875.2915215,242725,4991.506170825461
1769239875.3317564,242703,5651.100730775918
1769239875.391354,242715,6300.422991677448
1769239875.432617,242729,6939.228555095867
1769239875.492464,242755,7567.344247965611
1769239875.532696,242765,8184.6609973862605
1769239875.5923207,242735,8791.11248141537
1769239875.6327174,242773,9386.651810267538
1769239875.6925604,242873,9971.259135128486
1769239875.7326646,242908,10544.966021794216
1769239875.7981157,242971,11107.848529543066
1769239875.8534794,242989,11659.997318439076
1769239875.904138,243018,12201.491247801292
1769239875.9410865,243043,12732.379266951228
1769239875.9931686,243091,13252.675771417787
1769239876.0334098,243165,13762.369241450846
1769239876.0934875,242744,14261.373959696695
1769239876.13327,242562,14749.394186329218
1769239876.1931372,242565,15225.8942615447
1769239876.2332387,242612,15690.253802895124
1769239876.2935534,242646,16141.907513532431
1769239876.3334284,242675,16580.377466641366
1769239876.394367,242644,17005.25487438484
1769239876.434318,242599,17416.16541901513
1769239876.4946675,242640,17812.75132435306
1769239876.5343244,242696,18194.696190314935
1769239876.594601,242804,18561.765802284946
1769239876.6340785,242894,18913.830363219404
1769239876.694406,242974,19250.859748362527
1769239876.7354615,243017,19572.895240774356
1769239876.7946517,243073,19880.015317280966
1769239876.8343043,243077,20172.308609841773
1769239876.8955824,243143,20449.857109766934
1769239876.9353135,243186,20712.736824548523
1769239876.9959576,242996,20960.995090231387
1769239877.0354183,242685,21194.551097993473
1769239877.0954866,242695,21413.127679083747
1769239877.1355696,242763,21616.35093839016
1769239877.1953506,242837,21803.9086704465
1769239877.2352335,242924,21975.615394533026
1769239877.2954078,242883,22131.394874142366
1769239877.3353515,242847,22271.223691871444
1769239877.396395,242820,22395.083343122977
1769239877.436325,242842,22502.960775849915
1769239877.4967637,242952,22594.887159143163
1769239877.536338,242996,22670.979220962494
1769239877.596478,243128,22731.451678575442
1769239877.636278,243172,22776.607605780493
1769239877.6968067,243203,22806.810120901824
1769239877.7372494,243255,22822.443424837093
1769239877.7967353,243088,22823.869527056835
1769239877.8362136,242788,22811.33686604099
1769239877.8975265,242655,22784.894000031945
1769239877.9372544,242731,22744.44582198837
1769239877.9974961,242836,22689.91975695133
1769239878.0373602,242894,22621.376011230688
1769239878.09747,242961,22539.009678806244
1769239878.1373777,242914,22443.103761534094
1769239878.1970785,242902,22333.97308758848
1769239878.2373157,242928,22211.935407275963
1769239878.2972436,242959,22077.32545675309
1769239878.3384676,242986,21930.512002708398
1769239878.3986225,243019,21771.896417733486
1769239878.438119,243065,21601.907570556046
1769239878.4982576,243143,21421.004287314638
1769239878.5386686,243223,21229.683379220216
1769239878.5986063,243016,21028.445331828618
1769239878.667384,242640,20817.663901164266
1769239878.701497,242489,20597.465887819428
1769239878.7398634,242471,20367.785493703486
1769239878.798122,242484,20128.529055672487
1769239878.839014,242492,19879.6813074773
1769239878.8994694,242460,19621.322018813353
1769239878.9391801,242425,19353.60266004761
1769239878.9995039,242382,19076.72168816601
1769239879.0391154,242432,18790.923860126364
1769239879.0993905,242487,18496.528144075026
1769239879.1392002,242509,18193.9476639723
1769239879.1993663,242564,17883.67666387426
1769239879.2405298,242555,17566.26480603477
1769239879.3005636,242575,17242.28968733262
1769239879.3402631,242575,16912.33394437261
1769239879.4006808,242613,16576.97760420152
1769239879.440287,242353,16236.764369115885
1769239879.500396,241835,15892.069756788818
1769239879.540387,241750,15542.982007062
1769239879.60098,241727,15189.399719745259
1769239879.640019,241681,14831.230451782361
1769239879.7004287,241671,14468.474011903782
1769239879.7401311,241616,14101.22148321112
1769239879.8014047,241482,13729.629282697806
1769239879.8410952,241439,13353.882310801766
1769239879.9015307,241449,12974.199755054713
1769239879.941022,241474,12590.879335925694
1769239880.0015998,241576,12204.33119642865
1769239880.0417333,241610,11815.087925732078
1769239880.101662,241682,11423.786078531333
1769239880.141064,241736,11031.133722183877
1769239880.2015717,241773,10637.882009210503
1769239880.2415075,241806,10244.794137273831
1769239880.3024905,241841,9852.617711592768
1769239880.3421607,241622,9462.036898322576
1769239880.4026537,241145,9073.542040162622
1769239880.4422235,241104,8687.319229902643
1769239880.5023336,241198,8303.358190858326
1769239880.5421872,241231,7921.666709232391
1769239880.6023548,241310,7542.3568352514485
1769239880.641977,241279,7165.621074997284
1769239880.702676,241176,6791.672765251556
1769239880.746263,241165,6420.686881764042
1769239880.8031774,241187,6052.8019770229885
1769239880.8430634,241278,5688.171068555099
1769239880.9035463,241383,5327.006968939081
1769239880.9430106,241482,4969.599812853687
1769239881.0035386,241562,4616.3033131052025
1769239881.0432155,241608,4267.500178519524
1769239881.1035812,241523,3923.5476315239666
1769239881.1430058,241179,3584.674036591757
1769239881.2043076,240971,3250.861986122656
1769239881.2468066,240985,2921.859484709791
1769239881.3046234,241077,2597.341914749555
1769239881.3441226,241146,2277.060050682258
1769239881.4045596,241226,1960.8810252623164
1769239881.4440832,241207,1648.7617444272164
1769239881.5042949,241198,1340.697783340482
1769239881.5441618,241240,1036.6902728654632
1769239881.6046147,241294,736.7567021704249
1769239881.6441174,241344,440.9515424437826
1769239881.7055523,241401,149.36769545560844
1769239881.7475731,241451,-137.87200864060293
1769239881.8055162,241566,-420.6168287315327
1769239881.8451116,241426,-698.7076174972008
1769239881.9055672,241040,-972.0864219618686
1769239881.9451957,240985,-1240.917380324555
1769239882.0055609,241026,-1505.5275372137494
1769239882.0452425,241066,-1766.237044429877
1769239882.1053448,241096,-2023.2752819317552
1769239882.1452234,241099,-2276.786288698133
1769239882.2063441,241036,-2526.861699168395
1769239882.2460895,241047,-2773.57294768967
1769239882.3064108,241131,-3016.961900705695
1769239882.3462358,241214,-3256.9959918356512
1769239882.406467,241345,-3493.5385755922257
1769239882.4463038,241408,-3726.352025345528
1769239882.5064454,241489,-3955.126960192754
1769239882.5462747,241525,-4179.521282174653
1769239882.6066368,241583,-4399.190681833714
1769239882.6472476,241638,-4613.804873090253
1769239882.7072818,241414,-4823.087549486348
1769239882.7470286,241090,-5026.929576311003
1769239882.8070827,240973,-5225.476868647012
1769239882.8471632,241048,-5419.048336696295
1769239882.9073408,241121,-5607.957102519478
1769239882.9473214,241146,-5792.411732182297
1769239883.007267,241159,-5972.526278536222
1769239883.0472178,241132,-6148.362075928664
1769239883.1073751,241099,-6319.961138910845
1769239883.1481376,241113,-6487.3600876571
1769239883.2082593,241164,-6650.5735758274095
1769239883.250514,241240,-6809.562661185346
1769239883.3083255,241350,-6964.211375394606
1769239883.3482182,241453,-7114.317697853808
1769239883.4082704,241551,-7259.602311427246
1769239883.4480014,241573,-7399.740722441726
1769239883.5081933,241675,-7534.402585225562
1769239883.5484138,241705,-7663.271236087426
1769239883.6093621,241782,-7786.052381894165
1769239883.649228,241745,-7902.494250002826
1769239883.7096477,241260,-8012.4796597216255
1769239883.7490191,241159,-8116.163425499037
1769239883.8093138,241243,-8213.933945931885
1769239883.8492305,241309,-8306.205438588473
1769239883.9091127,241369,-8393.294429056774
1769239883.9496067,241400,-8475.42158460784
1769239884.0091226,241329,-8552.75396402831
1769239884.049307,241305,-8625.456046347239
1769239884.1102383,241339,-8693.703663940216
1769239884.1500037,241360,-8757.652715187149
1769239884.2103038,241464,-8817.406168638914
1769239884.2502797,241525,-8872.993799868493
1769239884.3101587,241650,-8924.364638501718
1769239884.3500578,241730,-8971.392031362684
1769239884.4104862,241765,-9013.89662872462
1769239884.45011,241830,-9051.68491766648
1769239884.5107646,241887,-9084.571465026616
1769239884.5501783,241778,-9112.403029122137
1769239884.611425,241338,-9135.162111054433
1769239884.6512523,241284,-9153.082920124589
1769239884.7113667,241373,-9166.580999022111
1769239884.7510486,241440,-9176.05475200465
1769239884.8112607,241563,-9181.778958332134
1769239884.851186,241568,-9183.906508747707
1769239884.911564,241510,-9182.522525102146
1769239884.951278,241511,-9177.70924503912
1769239885.0114222,241524,-9169.559580628187
1769239885.0527117,241569,-9158.150230355253
1769239885.1124082,241626,-9143.517798695351
1769239885.1521516,241696,-9125.646433671824
1769239885.2123373,241763,-9104.466066383746
1769239885.252015,241848,-9079.858238831957
1769239885.312337,241959,-9051.659524884371
1769239885.3521655,241944,-9019.676128940111
1769239885.4121306,241502,-8983.785816261508
1769239885.452263,241297,-8944.104046746434
1769239885.5122466,241268,-8901.001853298552
1769239885.5532134,241283,-8854.941040227603
1769239885.6135597,241305,-8806.33222703466
1769239885.6538289,241343,-8755.490913427087
1769239885.7134228,241325,-8702.640022440568
1769239885.7531948,241336,-8647.931633122813
1769239885.813133,241377,-8591.460019145532
1769239885.8530614,241406,-8533.255616232082
1769239885.913359,241475,-8473.280157350231
1769239885.953123,241499,-8411.431515971948
1769239886.0145261,241550,-8347.55825089548
1769239886.0541239,241565,-8281.479315622853
1769239886.1144474,241657,-8212.994380648684
1769239886.1541843,241704,-8141.880777383451
1769239886.214382,241838,-8067.887067805823
1769239886.254098,241917,-7990.729279858133
1769239886.3146033,241966,-7910.105450422767
1769239886.3541985,241683,-7825.773681594905
1769239886.4145706,241224,-7737.715941469709
1769239886.4541872,241176,-7646.2423430967065
1769239886.5152721,241162,-7551.872418961477
1769239886.5551903,241176,-7455.135716329714
1769239886.6150486,241219,-7356.480046034884
1769239886.6551611,241243,-7256.253929387047
1769239886.7152026,241235,-7154.714516097486
1769239886.7551055,241204,-7052.057580138322
1769239886.8150713,241278,-6948.434536871327
1769239886.855169,241306,-6843.936327899808
1769239886.9153714,241359,-6738.580637278675
1769239886.9561157,241397,-6632.322619955463
1769239887.0162752,241447,-6525.0693163648475
1769239887.056111,241538,-6416.68528839959
1769239887.1164265,241641,-6306.9864121560695
1769239887.1559074,241745,-6195.734787652583
1769239887.2162135,241845,-6082.648793052985
1769239887.256003,241905,-5967.427294214844
1769239887.3161733,241553,-5849.833638425019
1769239887.3559124,241246,-5729.8584783873885
1769239887.417338,241173,-5607.793971598351
1769239887.456984,241198,-5484.106569975641
1769239887.517231,241295,-5359.255543324673
1769239887.5570738,241332,-5233.599822336395
1769239887.6171055,241398,-5107.3901200958435
1769239887.6571848,241382,-4980.798316920045
1769239887.7171652,241383,-4853.9553642325245
1769239887.756976,241432,-4726.972272941474
1769239887.8175054,241480,-4599.928755444127
1769239887.85691,241531,-4472.858781304565
1769239887.9183555,241584,-4345.753342972113
1769239887.9579875,241653,-4218.567244050807
1769239888.018241,241735,-4091.220798450751
1769239888.0579293,241812,-3963.600716222822
1769239888.118472,241951,-3835.5599006425614
1769239888.15795,241893,-3706.9330445322944
1769239888.2180457,241483,-3577.6435909616716
1769239888.2584624,241384,-3447.851534875425
1769239888.3185458,241424,-3317.9294380728425
1769239888.358935,241469,-3188.289053464085
1769239888.4193566,241547,-3059.268273523551
1769239888.4588077,241584,-2931.111859009178
1769239888.5194407,241561,-2803.9943054811483
1769239888.5588863,241605,-2678.0553080886352
1769239888.6194885,241678,-2553.4025728605334
1769239888.6590862,241724,-2430.0908342527923
1769239888.7190473,241812,-2308.117069543101
1769239888.7589836,241844,-2187.430375348815
1769239888.820441,241919,-2067.946873989698
1769239888.8599994,241931,-1949.5670916693032
1769239888.920448,242034,-1832.1862919360076
1769239888.959916,242063,-1715.6935202739628
1769239889.0203714,241645,-1600.0351561089094
1769239889.0599804,241501,-1485.3567893053405
1769239889.1202145,241496,-1372.0189165192287
1769239889.1599367,241533,-1260.4423782162587
1769239889.2200632,241548,-1150.9862923272235
1769239889.2602303,241555,-1043.9260136746764
1769239889.3214822,241510,-939.4733194436184
1769239889.3609612,241469,-837.8060751386054
1769239889.4210432,241514,-739.0761007788861
1769239889.4610758,241583,-643.3773858930087
1769239889.5214534,241731,-550.7004692061228
1769239889.5609155,241771,-460.9141858869289
1769239889.6213648,241853,-373.7928969217577
1769239889.6610308,241884,-289.0599702095873
1769239889.7211802,241931,-206.41834846309138
1769239889.7620447,241959,-125.57170281935
1769239889.8223758,242010,-46.23645776057978
1769239889.8618364,242020,31.851244419838267
1769239889.922579,241497,108.8559582235327
1769239889.9619265,241364,184.69360528417025
1769239890.0222251,241376,259.0409644314097
1769239890.0622396,241391,331.52508562295355
1769239890.122283,241413,401.8487330754631
1769239890.1621106,241389,469.8011959226692
1769239890.222971,241322,535.2295033509204
1769239890.263141,241280,598.004390027097
1769239890.3234684,241278,658.0144707929541
1769239890.3631644,241341,715.1959586906985
1769239890.4235513,241447,769.5762312706171
1769239890.462899,241542,821.3027109931604
1769239890.5229719,241621,870.6366753634832
1769239890.5631957,241671,917.9182514849743
1769239890.6236343,241740,963.5279329104409
1769239890.6629114,241757,1007.8573278316862
1769239890.7240126,241836,1051.2884533219697
1769239890.7641478,241872,1094.1854467927083
1769239890.8244338,241475,1136.8334330782925
1769239890.8639219,241208,1179.2900890642504
1769239890.9242268,241199,1221.3398125082647
1769239890.9638398,241275,1262.6529742943794
1769239891.0245683,241301,1302.9543826947502
1769239891.0641716,241345,1342.067173886004
1769239891.1243072,241277,1379.8829909172346
1769239891.1639855,241215,1416.311055775978
1769239891.2251995,241185,1451.2441627558064
1769239891.2652245,241232,1484.5752896735296
1769239891.3249283,241334,1516.2497512244463
1769239891.3857799,241390,1546.3051429591023
1769239891.4295459,241543,1574.8783468400004
1769239891.4752195,241578,1602.1943390568824
1769239891.5250118,241635,1628.5322250387055
1769239891.565144,241649,1654.1774820577036
1769239891.6250203,241619,1679.383822734598
1769239891.6660788,241287,1704.3033861578729
1769239891.725977,240961,1728.8664051880348
1769239891.766146,241005,1752.7545290445632
1769239891.8260193,241069,1775.5623600441982
1769239891.8658376,241156,1796.9747079385932
1769239891.92607,241215,1816.8167103613032
1769239891.9665034,241148,1835.0169507539297
1769239892.0261369,241102,1851.5381434261087
1769239892.0659733,241100,1866.3354124458704
1769239892.1269064,241165,1879.3773281267652
1769239892.1715364,241211,1890.687416732076
1769239892.227037,241280,1900.3606206996337
1769239892.2670958,241346,1908.5576184144877
1769239892.3273358,241424,1915.495289832766
1769239892.3669465,241530,1921.4401844483448
1769239892.427198,241564,1926.697222794018
1769239892.4668756,241291,1931.5400449916872
1769239892.5271115,240808,1936.04402288777
1769239892.5668163,240741,1939.9711235818486
1769239892.6284163,240701,1942.8789796817018
1769239892.6679237,240685,1944.3156018333536
1769239892.7281313,240732,1943.9136773344098
1769239892.768176,240727,1941.4156727371299
1769239892.8284256,240706,1936.6674134720008
1769239892.8681502,240694,1929.589011138796
1769239892.9283247,240746,1920.1651073179655
1769239892.967804,240774,1908.4588919846829
1769239893.0285041,240822,1894.617517982194
1769239893.0691197,240851,1878.8595311405013
1769239893.1294568,240886,1861.4564791988864
1769239893.168806,240954,1842.7198023313117
1769239893.228962,241034,1823.000570934962
1769239893.268926,241133,1802.693716122336
1769239893.3291318,241188,1782.2296731450913
1769239893.3690183,240814,1761.994189126534
1769239893.4290447,240350,1742.1397571903492
1769239893.4694104,240266,1722.4734655306686
1769239893.5304773,240213,1702.5876773536859
1769239893.5700784,240179,1682.0579810603642
1769239893.630256,240209,1660.5330979679434
1769239893.6700969,240170,1637.7583251593774
1769239893.7301238,240168,1613.5712218156073
1769239893.77032,240195,1587.8906023562995
1769239893.8300698,240253,1560.726079666449
1769239893.870899,240307,1532.1899711320793
1769239893.9303498,240359,1502.4908515930106
1769239893.9712117,240403,1471.9125387609572
1769239894.031293,240447,1440.789723986933
1769239894.0707374,240514,1409.4901581218814
1769239894.1313221,240628,1378.4124669221546
1769239894.170857,240732,1347.9941286833493
1769239894.2308738,240911,1318.7169369086077
1769239894.270982,240811,1291.0783625652177
1769239894.3316293,240308,1265.4437026858473
1769239894.371087,240138,1241.853377981583
1769239894.4321601,240131,1220.0400881646588
1769239894.4722176,240121,1199.6269996707424
1769239894.5322528,240181,1180.2661068568661
1769239894.572084,240207,1161.6804993319547
1769239894.632324,240185,1143.6629223989771
1769239894.6720219,240201,1126.048799574799
1769239894.7321324,240241,1108.7058907799083
1769239894.7721086,240299,1091.5497741735046
1769239894.8323705,240364,1074.5570204828662
1769239894.872111,240421,1057.7641752328257
1769239894.9332445,240478,1041.2557136656987
1769239894.9731324,240509,1025.1455847802863
1769239895.0335712,240638,1009.5681135308988
1769239895.0727684,240702,994.6870939728857
1769239895.133344,240396,980.6460224332245
1769239895.1733062,240165,967.424138480206
1769239895.232874,240139,954.773317345172
1769239895.2730277,240163,942.3317037187167
1769239895.3331654,240185,929.7586648650235
1769239895.374984,240196,916.7812135711838
1769239895.4343917,240126,903.1792723683138
1769239895.4739265,240148,888.7584384496679
1769239895.5343995,240232,873.3615157341047
1769239895.574185,240325,856.9153410673626
1769239895.634339,240456,839.4605438109999
1769239895.673964,240516,821.1460629401124
1769239895.7340436,240607,802.1977034285142
1769239895.7740712,240651,782.8815639914286
1769239895.8353121,240715,763.4766964416989
1769239895.875018,240763,744.2562646059453
1769239895.935249,240908,725.4878886007748
1769239895.9751549,240981,707.4495269693904
1769239896.0353496,240626,690.3714962096445
1769239896.0750513,240398,674.2774917640486
1769239896.1353967,240326,658.9191857780886
1769239896.1835377,240352,643.8983396387238
1769239896.2351887,240332,628.8104024102612
1769239896.2751336,240369,613.3020348176864
1769239896.3362923,240317,597.0760439642236
1769239896.3757775,240301,579.876088117952
1769239896.4362872,240356,561.4832569377483
1769239896.4774535,240401,541.7444263414602
1769239896.5363479,240576,520.6095649221594
1769239896.5758197,240650,498.1567993277821
1769239896.636116,240725,474.57761413091663
1769239896.6757631,240772,450.12712939505514
1769239896.7362208,240843,425.08687451457115
1769239896.776966,240897,399.7497751007021
1769239896.8373318,240958,374.4106600826483
1769239896.8770223,241079,349.3646813980602
1769239896.9372675,241222,324.9243304015005
1769239896.983364,241268,301.42570337274515
1769239897.0370283,240781,279.12565013550244
1769239897.0771425,240603,258.01323957144524
1769239897.137289,240618,237.78790195584702
1769239897.1818063,240627,218.04273426509778
1769239897.2380798,240660,198.4066781500389
1769239897.2778127,240683,178.5768647151175
1769239897.3382864,240672,158.31418148887235
1769239897.377923,240661,137.42483489024912
1769239897.438384,240753,115.75712206894922
1769239897.4792237,240843,93.2332605026051
1769239897.5385492,240927,69.8762367345648
1769239897.5780582,241013,45.80177373747004
1769239897.6384346,241065,21.193086577128636
1769239897.6779077,241118,-3.7282062625056325
1769239897.7390032,241175,-28.7259649974884
1769239897.7791011,241232,-53.5603913917138
1769239897.8391404,241363,-77.9841593718454
1769239897.8789902,241459,-101.72708792191446
1769239897.939387,241590,-124.48991662884075
1769239897.97897,241313,-146.00138294922533
1769239898.0393357,240998,-166.1709896481575
1769239898.0790586,240982,-185.18379485321586
1769239898.1395855,241039,-203.3877814287193
1769239898.182688,241061,-221.12387268324505
1769239898.2399278,241103,-238.6646561011625
1769239898.280276,241110,-256.22118855799704
1769239898.3401155,241074,-273.9641208098721
1769239898.380021,241148,-292.03900758904757
1769239898.4402254,241249,-310.5419094766717
1769239898.4803014,241292,-329.4862532073677
1769239898.5402431,241381,-348.80911912157586
1769239898.5798872,241409,-368.3950400500509
1769239898.6411815,241469,-388.0969070476762
1769239898.680914,241492,-407.75480274508027
1769239898.740993,241623,-427.1981087734578
1769239898.78103,241682,-446.2302736674648
1769239898.8412757,241352,-464.678897558852
1769239898.8807747,241119,-482.5429447146054
1769239898.9411538,241075,-500.05425784990837
1769239898.9809086,241108,-517.557466764171
1769239899.0410767,241114,-535.3693315725665
1769239899.0818746,241138,-553.7292651325855
1769239899.14205,241084,-572.8090153757421
1769239899.1852696,241077,-592.7382750804336
1769239899.2419207,241122,-613.6089517445618
1769239899.2823153,241209,-635.4439013787877
1769239899.3421073,241343,-658.1591437392472
1769239899.382097,241386,-681.5548934266664
1769239899.4420354,241486,-705.3443769582219
1769239899.4826446,241515,-729.1915344169896
1769239899.5431232,241573,-752.7406370550156
1769239899.5830352,241621,-775.638288188019
1769239899.643313,241719,-797.5375010667383
1769239899.6829147,241810,-818.0883853686493
1769239899.743008,241665,-836.9638500975343
1769239899.7833164,241322,-853.9751988861443
1769239899.8430479,241084,-869.2026138481582
1769239899.8830078,241096,-882.9756368802492
1769239899.94302,241074,-895.7131092084234
1769239899.9830787,241079,-907.7976690106491
1769239900.044323,241068,-919.5456145374338
1769239900.0839624,241007,-931.2166726323272
1769239900.144057,240996,-943.0315245005733
1769239900.184865,241027,-955.1681087098191
1769239900.2437224,241135,-967.7248249378923
1769239900.2843156,241238,-980.680471155705
1769239900.344213,241302,-993.8880675655442
1769239900.3841722,241370,-1007.1072471458763
1769239900.4441185,241427,-1020.0420830415692
1769239900.4846902,241465,-1032.3684397534864
1769239900.54516,241539,-1043.7538565537052
1769239900.5850012,241613,-1053.8633230570902
1769239900.6449816,241763,-1062.3492215990577
1769239900.6848822,241801,-1068.846070667304
1769239900.7452126,241318,-1073.0650760488736
1769239900.7849104,241069,-1074.9885531096925
1769239900.8452816,241072,-1074.9109173522768
1769239900.884889,241085,-1073.254682024642
1769239900.9462547,241119,-1070.4063666755594
1769239900.9877605,241127,-1066.6746904485365
1769239901.0459664,241076,-1062.3061897539314
1769239901.0858932,241055,-1057.5164348838152
1769239901.1462553,241117,-1052.4938505102646
1769239901.1916144,241186,-1047.3636095195045
1769239901.2459836,241290,-1042.154053979805
1769239901.2859728,241350,-1036.793455618083
1769239901.3457801,241421,-1031.1320009260808
1769239901.3860245,241464,-1024.9723102009516
1769239901.4472392,241522,-1018.0942664099056
1769239901.48746,241554,-1010.2729101762425
1769239901.5469422,241669,-1001.2840653359813
1769239901.586583,241511,-990.923018383796
1769239901.6472468,241144,-979.109071489766
1769239901.686812,241106,-965.9950964867404
1769239901.7472708,241146,-951.8995863502834
1769239901.7867913,241186,-937.1412490778849
1769239901.8470502,241220,-921.9619960572685
1769239901.8867042,241204,-906.5347803726507
1769239901.9479744,241123,-891.0017310108515
1769239901.9892044,241118,-875.5106154683898
1769239902.048047,241217,-860.1985743344022
1769239902.0877898,241283,-845.134764910931
1769239902.148245,241432,-830.2846387074165
1769239902.187717,241510,-815.5076706907416
1769239902.2479424,241590,-800.5809400238606
1769239902.2878702,241605,-785.2450579542863
1769239902.3482652,241673,-769.2449804689593
1769239902.3889132,241716,-752.3449083595518
1769239902.448999,241321,-734.3852286980127
1769239902.4894736,241030,-715.428025633612
1769239902.5491643,240947,-695.8165452368706
1769239902.5889993,241014,-676.0317767082404
1769239902.6492333,241022,-656.5135450975183
1769239902.6888363,241032,-637.5959998327568
1769239902.7492793,241005,-619.5252740350735
1769239902.788925,240947,-602.4925833645243
1769239902.8502398,240900,-586.6613640838315
1769239902.8899155,240927,-572.1684724273698
1769239902.950149,241010,-559.0876996137035
1769239902.9917884,241065,-547.3902760643123
1769239903.0502112,241199,-536.9328085047987
1769239903.0896428,241272,-527.4620251662386
1769239903.1499572,241317,-518.640780096409
1769239903.1897326,241380,-510.09290437421737
1769239903.2500532,241434,-501.43244258613134
1769239903.2898743,241479,-492.2770871219587
1769239903.3511317,241395,-482.2790946281703
1769239903.3906431,240968,-471.22496449190425
1769239903.4511623,240624,-459.1843075087706
1769239903.492681,240601,-446.52779521368257
1769239903.5510225,240637,-433.7436132872819
1769239903.5907724,240622,-421.255090932407
1769239903.6511183,240614,-409.3770132126002
1769239903.6907454,240539,-398.34403807861753
1769239903.7523475,240448,-388.348510176776
1769239903.7917278,240437,-379.5609378189047
1769239903.8519707,240488,-372.1030839387457
1769239903.8916316,240561,-365.9967297208762
1769239903.9520884,240694,-361.13001351708823
1769239903.9935966,240778,-357.2507296334105
1769239904.052283,240829,-353.9947950084046
1769239904.0916507,240913,-350.93477813285676
1769239904.152101,240948,-347.61474539358045
1769239904.1949823,241011,-343.5744925467638
1769239904.252909,241093,-338.36499670431175
1769239904.2933178,241171,-331.54929430568365
1769239904.3529193,240925,-322.74621898379024
1769239904.3926423,240575,-311.7670379298183
1769239904.4530773,240455,-298.71934142053203
1769239904.4943,240442,-283.93050439066826
1769239904.553172,240471,-267.78130097085636
1769239904.5926597,240480,-250.60627178155593
1769239904.6539621,240435,-232.68127185299903
1769239904.6937647,240363,-214.2551836705984
1769239904.7542248,240327,-195.57818904563015
1769239904.7938976,240370,-176.88920286239238
1769239904.8539321,240489,-158.36294793206326
1769239904.8936334,240570,-140.06016789454998
1769239904.954298,240621,-121.92797243249625
1769239904.9975843,240675,-103.83926646825113
1769239905.054192,240693,-85.63055820242921
1769239905.0949275,240731,-67.12804659911775
1769239905.1548204,240812,-48.15599862397051
1769239905.1947765,240840,-28.5312926681531
1769239905.255092,240366,-8.136010648672363
1769239905.2949378,240153,12.919764096607791
1769239905.3549588,240112,34.267735874890235
1769239905.394738,240129,55.44678753445943
1769239905.4552658,240171,76.05466962747823
1769239905.4959161,240138,95.79079690773295
1769239905.5560493,240065,114.42900936966882
1769239905.5957856,239991,131.77061537483377
1769239905.6557887,240050,147.63828694424248
1769239905.6956086,240091,161.92128372959
1769239905.7558033,240246,174.62532184036147
1769239905.7957294,240306,185.89314414179447
1769239905.8561888,240397,195.98518483373226
1769239905.8956833,240417,205.232990368543
1769239905.956192,240477,213.99587256653513
1769239905.9974265,240520,222.6364669234853
1769239906.056896,240606,231.5151238518982
1769239906.0967524,240711,240.9965859137859
1769239906.1570075,240269,251.39016595404524
1769239906.1987078,239924,262.7694841241108
1769239906.256775,239767,274.8711574042649
1769239906.2968273,239741,287.22022583841766
1769239906.3569968,239697,299.3122860900986
1769239906.3966424,239689,310.7029852965801
1769239906.4580004,239607,321.0230483793851
1769239906.4976282,239525,329.9589007437501
1769239906.557924,239548,337.2426965964136
1769239906.5976176,239606,342.6882553271236
1769239906.657761,239741,346.2458336181309
1769239906.6978092,239794,348.0255065893197
1769239906.7578752,239890,348.2745983735506
1769239906.7977977,239917,347.3338974560356
1769239906.8590364,239991,345.59871229217174
1769239906.8989491,240025,343.491467879663
1769239906.9590874,240167,341.4533421802195
1769239907.0013714,240246,339.95199221782354
1769239907.0590317,240436,339.48819974353665
1769239907.0989327,240463,340.58451739888676
1769239907.1586897,239853,343.6564442857044
1769239907.2023652,239570,348.77276156802
1769239907.259184,239468,355.6027634548178
1769239907.2998931,239451,363.6201618679143
1769239907.3602057,239438,372.2931099477113
1769239907.399605,239479,381.16017304690223
1769239907.4600656,239435,389.849604619216
1769239907.5020597,239435,398.06590051771536
1769239907.5601451,239481,405.58029500261995
1769239907.599614,239505,412.24500510683384
1769239907.6600418,239598,418.00558486662715
1769239907.6995237,239637,422.9019963007249
1769239907.7610588,239710,427.0573713051517
1769239907.8008296,239766,430.65835703592955
1769239907.8611927,239874,433.94428026992995
1769239907.904983,239946,437.2031933612411
1769239907.960609,240109,440.76906904209847
1769239908.006453,240226,445.0236032016167
1769239908.061161,240340,450.3860781128168
1769239908.1008253,240079,457.23743723015866
1769239908.1610746,239599,465.7385985337854
1769239908.2028234,239529,475.69278571834445
1769239908.261963,239553,486.65264769281384
1769239908.3018873,239615,498.14369067818797
1769239908.3622465,239698,509.78292508420293
1769239908.4015586,239677,521.2903344051949
1769239908.4621007,239588,532.4402712381677
1769239908.5034866,239596,543.0065173396569
1769239908.5618482,239637,552.7702130714781
1769239908.6016707,239680,561.564942603394
1769239908.663025,239753,569.300517303453
1769239908.702537,239792,575.9632000205896
1769239908.7630131,239898,581.6091428733043
1769239908.8032346,239970,586.3618606399081
1769239908.8630528,240125,590.4147316745316
1769239908.9025571,240178,594.0262112352576
1769239908.9631095,239767,597.4304985322091
1769239909.0058403,239370,600.6354333015006
1769239909.0640166,239207,603.3138325786786
1769239909.1038787,239182,604.9299366424378
1769239909.1639683,239192,604.9412376567767
1769239909.207052,239225,602.9138823167051
1769239909.264167,239239,598.5534559227054
1769239909.3037195,239198,591.6892497610462
1769239909.3641703,239175,582.2372385903259
1769239909.4035933,239205,570.1812951040589
1769239909.4639213,239262,555.5891438596682
1769239909.5045247,239325,538.6328308674877
1769239909.5649672,239411,519.5910831310774
1769239909.6045694,239493,498.8397684773801
1769239909.6648107,239606,476.83890683458606
1769239909.7047837,239706,454.1186600680378
1769239909.7647672,239811,431.2605711357258
1769239909.8044333,239886,408.87009663910953
1769239909.8648093,239298,387.4617651567853
1769239909.9045177,238900,367.22687068365957
1769239909.9658437,238679,347.9312414653214
1769239910.0081887,238667,329.0843349406274
1769239910.0659764,238624,310.16690874843323
1769239910.1056201,238658,290.75022498052357
1769239910.1656568,238626,270.5272940325543
1769239910.2067933,238543,249.29431486006774
1769239910.266131,238528,226.91391318565454
1769239910.3057356,238546,203.31210347053383
1769239910.3670106,238618,178.51031356279182
1769239910.4067981,238677,152.64987855699403
1769239910.4669445,238831,126.00017973138779
1769239910.5075667,238889,98.95534036138935
1769239910.5670664,239079,72.0163861115464
1769239910.6066856,239167,45.771019455100884
1769239910.6669683,239354,20.87265761735534
1769239910.706454,239369,-1.997454089276286
1769239910.7671273,238816,-22.267829808311678
1769239910.8078744,238450,-39.71612620357659
1769239910.867781,238340,-54.54378595357394
1769239910.9075553,238362,-67.18090279900473
1769239910.9680445,238431,-78.05922107769115
1769239911.0098307,238510,-87.50280549350848
1769239911.06808,238493,-95.71672281583044
1769239911.1074147,238487,-102.831578211482
1769239911.1679175,238494,-108.9451782678738
1769239911.208689,238552,-114.12453159301998
1769239911.2691133,238670,-118.37881490126486
1769239911.3085136,238791,-121.62854785841168
1769239911.3689482,238950,-123.69233889579787
1769239911.4085186,239078,-124.29523112531884
1769239911.468914,239224,-123.09243721754291
1769239911.508574,239317,-119.70324701987117
1769239911.5689533,239142,-113.78396452879403
1769239911.6085017,238764,-105.17930329136063
1769239911.6696892,238538,-94.06030321485052
1769239911.7094045,238543,-80.88609409538951
1769239911.7699008,238657,-66.20923420986674
1769239911.8096898,238743,-50.50438379061948
1769239911.8698218,238820,-34.1163188584309
1769239911.9094532,238793,-17.292184354901394
1769239911.9697132,238807,-0.2370795465406433
1769239912.011199,238851,16.860152432724252
1769239912.071128,238981,33.85134810089502
1769239912.1105247,239063,50.66605014556167
1769239912.1705368,239212,67.32308922773889
1769239912.210581,239307,83.92217417834497
1769239912.270815,239528,100.63813750244876
1769239912.3105435,239532,117.70744621993524
1769239912.3709817,239017,135.3013862784871
1769239912.4104154,238828,153.3119347714737
1769239912.4708998,238814,171.3287895220428
1769239912.5125043,238829,188.83372317731587
1769239912.572046,238889,205.35732233099867
1769239912.6116135,238956,220.53266273319505
1769239912.6717398,238978,234.10366111917202
1769239912.7115903,239037,245.90798154931787
1769239912.7721107,239126,255.86679813234946
1769239912.8115766,239211,263.99189804261533
1769239912.8719356,239332,270.3888928694928
1769239912.9130335,239422,275.2501420625395
1769239912.9731762,239525,278.83751834859896
1769239913.0147238,239634,281.4616621701565
1769239913.0728288,239765,283.47081329211346
1769239913.1124268,239932,285.2506571409325
1769239913.1724427,239649,287.1720950289879
1769239913.212569,239292,289.4211500258255
1769239913.2729726,239159,291.8645027791179
1769239913.3124588,239151,294.1294591925641
1769239913.3737438,239159,295.78338096751276
1769239913.4134905,239179,296.43955560925497
1769239913.4737263,239220,295.7885694824231
1769239913.5154421,239207,293.6011494790129
1769239913.5737977,239301,289.7237732458678
1769239913.6134365,239349,284.0877518753124
1769239913.673984,239465,276.72236808178604
1769239913.7135768,239527,267.7531264418648
1769239913.7738192,239636,257.38810290460646
1769239913.8148017,239684,245.89726524704326
1769239913.874953,239797,233.5915341350383
1769239913.9144485,239887,220.81256441361856
1769239913.9745982,240001,207.9295896180412
1769239914.0151565,239702,195.28124193340574
1769239914.074881,239268,183.00668550566513
1769239914.1144946,239240,170.92875201056725
1769239914.174419,239228,158.67217108631948
1769239914.215595,239232,145.8561123884686
1769239914.2757316,239265,132.17337706456354
1769239914.315516,239263,117.40113735534447
1769239914.37575,239239,101.39042182877598
1769239914.4154055,239304,84.05247860891046
1769239914.4760628,239419,65.38002324729557
1769239914.5200737,239453,45.474478972302634
1769239914.5760825,239525,24.529928817050173
1769239914.615397,239511,2.7925586738228696
1769239914.6768909,239504,-19.480440395491588
1769239914.7165112,239515,-42.05010299885533
1769239914.776993,239505,-64.70058956625125
1769239914.81642,239104,-87.28791126159463
1769239914.876948,238474,-109.90880353108044
1769239914.916484,238338,-133.02222915377106
1769239914.9767432,238183,-157.31520077427342
1769239915.0176008,238107,-183.47595243171605
1769239915.0765417,237989,-212.0898112435793
1769239915.1173682,237902,-243.62011506135875
1769239915.1775327,237841,-278.4012118797648
1769239915.2177148,237925,-316.6100841022708
1769239915.277735,238108,-358.2010637363936
1769239915.3174047,238285,-402.8455417992019
1769239915.3779593,238446,-449.9344624468889
1769239915.417392,238561,-498.64152630996404
1769239915.4780457,238675,-548.0040100295162
1769239915.519163,238756,-596.9931128542967
1769239915.5786355,238903,-644.5610944196823
1769239915.618452,238987,-689.6674608508424
1769239915.678993,238548,-731.3747806575899
1769239915.718424,238298,-769.0443647831928
1769239915.7791657,238337,-802.3965458069837
1769239915.8186345,238379,-831.3395764671461
1769239915.878949,238455,-855.8042648395584
1769239915.9186025,238469,-875.7056471846606
1769239915.9796498,238458,-890.9684614635621
1769239916.0194263,238423,-901.5659773248856
1769239916.08005,238502,-907.5308918498039
1769239916.1197236,238588,-908.9195203918437
1769239916.1796374,238778,-905.7587923686131
1769239916.2196577,238893,-898.0135982951617
1769239916.2799342,239015,-885.5964860422539
1769239916.3197846,239099,-868.40730704176
1769239916.3800516,239179,-846.3703643630365
1769239916.42069,239248,-819.4590204184049
1769239916.4807625,239311,-787.709568544495
1769239916.520424,239022,-751.2707003513324
1769239916.5806417,238666,-710.5332216851854
1769239916.6204765,238690,-666.1938190786955
1769239916.6807575,238761,-619.1077325305482
1769239916.7206042,238795,-570.0966261477213
1769239916.7806048,238871,-519.8837461721877
1769239916.8206823,238846,-469.1042589089106
1769239916.8819954,238820,-418.33666683898105
1769239916.9216309,238837,-368.1292039822328
1769239916.9815292,238973,-318.9752415829523
1769239917.0213878,239089,-271.25390666956326
1769239917.0816188,239278,-225.19105307028244
1769239917.121477,239345,-180.86354702643433
1769239917.1814477,239475,-138.23897670754107
1769239917.2216227,239517,-97.22157338320524
1769239917.2829218,239631,-57.682694572026534
1769239917.3227026,239704,-19.474142465329162
1769239917.3827755,239437,17.521785020216793
1769239917.4226582,239178,53.26190025413185
1769239917.4829118,239190,87.47879591302868
1769239917.5227377,239264,119.80186392871227
1769239917.5829976,239345,149.91512922078053
1769239917.6225624,239425,177.61663039594936
1769239917.6830273,239387,202.79947143442845
1769239917.723561,239333,225.39348798257004
1769239917.7839978,239349,245.32175598712317
1769239917.823568,239418,262.5197466649253
1769239917.883918,239540,276.98925814797633
1769239917.9234688,239673,288.8393153855058
1769239917.9839973,239785,298.2942796339534
1769239918.023446,239854,305.66648325869556
1769239918.0839121,239957,311.31544070715023
1769239918.123944,239906,315.6062217241888
1769239918.184565,239432,318.79733180734183
1769239918.2246602,239267,320.88290329274247
1769239918.284625,239356,321.6159397178392
1769239918.3244681,239420,320.7191464719137
1769239918.3850415,239573,318.0366935145346
1769239918.4245179,239603,313.5585001427975
1769239918.4849162,239558,307.3705141413696
1769239918.5243368,239542,299.577886669552
1769239918.5860143,239584,290.27658337822925
1769239918.6254513,239637,279.5805892170781
1769239918.6860151,239755,267.65615174317406
1769239918.7255576,239858,254.74391606814126
1769239918.7860606,239997,241.16504159257633
1769239918.8256817,240084,227.3081999698164
1769239918.8856623,240171,213.59912184325034
1769239918.9255786,240126,200.45058828787458
1769239918.9859633,239567,188.13311684074964
1769239919.0264492,239438,176.60612841329498
1769239919.0869157,239434,165.5463813539275
1769239919.1264918,239485,154.56190745751528
1769239919.186528,239542,143.33822990978103
1769239919.2267716,239607,131.67234175673923
1769239919.2864819,239569,119.45735150396959
1769239919.3266115,239566,106.63812975831989
1769239919.3867993,239586,93.18325119289001
1769239919.4269352,239624,79.09457691992905
1769239919.487916,239697,64.42709136554487
1769239919.527344,239739,49.298125653481144
1769239919.5878005,239850,33.88639513958064
1769239919.627666,239914,18.42957305217593
1769239919.6879184,240061,3.222222204580225
1769239919.727579,240108,-11.393185319985859
1769239919.7878373,239645,-25.120968844428006
1769239919.8276737,239387,-37.9042614321243
1769239919.8889527,239327,-49.98275148452271
1769239919.9286351,239298,-61.73767271592124
1769239919.9886518,239321,-73.53568922320326
1769239920.0313852,239349,-85.66417908782779
1769239920.088965,239353,-98.31480711077918
1769239920.1285768,239355,-111.59549891008646
1769239920.1886058,239367,-125.54903026915788
1769239920.2285395,239432,-140.15512734175093
1769239920.288512,239460,-155.3217503021683
1769239920.329831,239514,-170.88839589772763
1769239920.3898199,239558,-186.64014034081683
1769239920.429343,239625,-202.31786104404972
1769239920.4897466,239709,-217.6222324340067
1769239920.5294049,239803,-232.2139655922984
1769239920.5897353,239867,-245.72160927404823
1769239920.6295397,239530,-257.8141568595147
1769239920.6898077,239209,-268.36175430868883
1769239920.729955,239196,-277.51125093318456
1769239920.7906187,239189,-285.5579212864
1769239920.8305373,239187,-292.78949032932314
1769239920.8905897,239233,-299.4318115168871
1769239920.930437,239191,-305.64528326936784
1769239920.9907308,239217,-311.5388829397381
1769239921.0303526,239247,-317.17777635341514
1769239921.0906413,239287,-322.57230391537115
1769239921.130313,239344,-327.67197528236153
1769239921.1906128,239384,-332.36978077196176
1769239921.2315326,239404,-336.51718772786273
1769239921.2915885,239435,-339.94680390368933
1769239921.331378,239498,-342.4826960083731
1769239921.3918164,239580,-343.931929051888
1769239921.4315345,239404,-344.10640699861307
1769239921.491627,239052,-342.93642958233005
1769239921.5312707,239005,-340.57364688210606
1769239921.5917933,239039,-337.31949693405375
1769239921.6315274,239039,-333.47093795933506
1769239921.6929007,239049,-329.2571753277854
1769239921.7325418,238974,-324.85645217957756
1769239921.7929714,238949,-320.427157584759
1769239921.8325853,238946,-316.1160994499172
1769239921.8928323,239074,-312.0233866499176
1769239921.9324114,239132,-308.15315416849774
1769239921.9930139,239190,-304.4056917909494
1769239922.0326052,239231,-300.61168898082116
1769239922.0925567,239255,-296.5673094053399
1769239922.1332815,239283,-292.0588433144898
1769239922.193657,239342,-286.8742262241685
1769239922.2335212,239311,-280.8099235860868
1769239922.2935703,238810,-273.7566610203041
1769239922.3339465,238706,-265.84204689504503
1769239922.393944,238735,-257.40449296757066
1769239922.43337,238706,-248.81143860112047
1769239922.4934738,238710,-240.36224689626724
1769239922.5333,238668,-232.29143080713044
1769239922.5949407,238590,-224.7905598571834
1769239922.6345277,238571,-218.02921456970435
1769239922.6948137,238614,-212.1422236639113
1769239922.7343576,238680,-207.18694752841543
1769239922.7947426,238815,-203.10671803546282
1769239922.8343701,238881,-199.71881401905364
1769239922.8947968,238953,-196.7385055095393
1769239922.934407,238994,-193.82422733461075
1769239922.994699,239043,-190.61436146480938
1769239923.0355823,239092,-186.7491055981043
1769239923.0955675,239167,-181.87865022667717
1769239923.1354365,239259,-175.65987831497628
1769239923.195617,238950,-167.80115132866135
1769239923.2354856,238633,-158.20516757860676
1769239923.2955978,238518,-147.06323381668568
1769239923.3359678,238509,-134.7614988134365
1769239923.3955984,238482,-121.7232735786357
1769239923.4355967,238463,-108.33315129021474
1769239923.4965742,238408,-94.93032265169444
1769239923.53639,238339,-81.8231649742067
1769239923.5968232,238362,-69.29291503782989
1769239923.636458,238403,-57.563563771575105
1769239923.697039,238542,-46.753983189831814
1769239923.7365518,238578,-36.851570757859214
1769239923.7968333,238668,-27.72952189447752
1769239923.836606,238674,-19.1877725985104
1769239923.8980434,238742,-10.9881077082028
1769239923.9375408,238779,-2.872996162005238
1769239923.9974902,238877,5.432233714280024
1769239924.0373852,238965,14.225508474702792
1769239924.097769,239133,23.839049430822225
1769239924.1374905,239249,34.648604191861594
1769239924.1975405,239057,47.02225515101826
1769239924.237543,238696,61.16192595519328
1769239924.2974904,238497,76.96085570837312
1769239924.3385484,238488,94.04479679706755
1769239924.3987803,238492,111.94268994259166
1769239924.438335,238532,130.21597625563692
1769239924.498423,238571,148.50392801288996
1769239924.5385058,238576,166.5273236062566
1769239924.5986545,238598,184.07281158455842
1769239924.638587,238645,200.9821099185804
1769239924.6987128,238736,217.16248641348795
1769239924.7389715,238787,232.59960343767673
1769239924.799734,238873,247.35179838536058
1769239924.8395066,238931,261.534531213672
1769239924.8998094,239054,275.3116710741024
1769239924.9392912,239105,288.8902845059954
1769239924.999435,239303,302.51777119885185
1769239925.0395694,239406,316.48995378862776
1769239925.0997484,239551,331.14693266193893
1769239925.1394923,239507,346.8269232210717
1769239925.1994185,239102,363.74153609082543
1769239925.2403183,239032,381.8314268589096
1769239925.30063,239095,400.7995527781201
1769239925.340382,239176,420.2939354137726
1769239925.4010534,239308,440.0292163544836
1769239925.4402208,239360,459.8110080959196
1769239925.500513,239329,479.50200151936383
1769239925.540394,239358,498.96521554439875
1769239925.6003418,239400,518.0487607101591
1769239925.6413426,239454,536.6097029614009
1769239925.7018166,239537,554.5353187285699
1769239925.7414303,239633,571.7577470972835
1769239925.8019593,239757,588.266823241802
1769239925.8415296,239868,604.115485941829
1769239925.9018984,239984,619.4128112144008
1769239925.9412959,240060,634.3042822036332
1769239926.0013316,240100,648.9398711584387
1769239926.0412033,239817,663.3990182975953
1769239926.1027937,239578,677.5663173411052
1769239926.1423337,239587,691.0929264940997
1769239926.2023325,239668,703.528519527036
1769239926.2422593,239737,714.4770233167104
1769239926.3028173,239848,723.6563233627702
1769239926.3425045,239843,730.891058423774
1769239926.4024558,239830,736.0685162055307
1769239926.442359,239834,739.092978314178
1769239926.5033534,239906,739.8852930902355
1769239926.5435412,239944,738.411593698218
1769239926.6034932,240052,734.7024254480034
1769239926.6434503,240139,728.8622443177715
1769239926.7036471,240277,721.0760989585265
1769239926.7435446,240364,711.6056953881299
1769239926.8037493,240449,700.7672411863141
1769239926.8433092,240539,688.9015751463279
1769239926.9037023,240612,676.354284086574
1769239926.9434452,240631,663.4547638473297
1769239927.004456,240162,650.4238435662317
1769239927.0444748,240003,637.2225836350385
1769239927.1046643,240029,623.5537930913877
1769239927.1445515,240080,609.0486692925906
1769239927.204753,240133,593.4098526040106
1769239927.2447522,240142,576.4355837412162
1769239927.3046162,240120,557.9929686275077
1769239927.3445504,240077,537.9810602789981
1769239927.4059138,240086,516.3126311010615
1769239927.4454522,240117,492.92841643613315
1769239927.5053806,240232,467.8331748477964
1769239927.5455275,240287,441.1262349805327
1769239927.6055512,240439,413.0086047823365
1769239927.645299,240517,383.77689721163256
1769239927.705587,240592,353.8009726625311
1769239927.7454498,240646,323.48316928476356
1769239927.8055506,240724,293.22791474872963
1769239927.846507,240773,263.4287114916423
1769239927.9065514,240651,234.4341723522876
1769239927.9464908,240383,206.45694590348796
1769239928.0064383,240295,179.49394630899008
1769239928.0467246,240373,153.3798714986112
1769239928.1067023,240419,127.93015537668205
1769239928.1462023,240473,103.02324699911337
1769239928.2065368,240484,78.5981568091231
1769239928.2462327,240443,54.62103878319943
1769239928.3076043,240409,31.047540638611505
1769239928.3472474,240446,7.813224080612408
1769239928.407456,240558,-15.128065107845229
1769239928.4473417,240650,-37.75277026508585
1769239928.5073833,240777,-59.94739684256869
1769239928.5472813,240817,-81.52462185157576
1769239928.6075473,240894,-102.26014868230881
1769239928.6474462,240916,-121.92776769166014
1769239928.7086818,240939,-140.32443249728885
1769239928.7487316,240693,-157.32198134721588
1769239928.80891,240468,-172.96240363022343
1769239928.8485258,240490,-187.48717569411707
1769239928.90865,240622,-201.21269788529156
1769239928.9484303,240685,-214.380247423849
1769239929.008304,240740,-227.1192005709033
1769239929.0485337,240707,-239.4914134433103
1769239929.1084082,240642,-251.55108676722077
1769239929.1495988,240674,-263.3783110896517
1769239929.2097082,240714,-275.0570464069091
1769239929.2496014,240797,-286.6307985566031
1769239929.3098147,240920,-298.0724420293617
1769239929.3499606,241008,-309.27040065849445
1769239929.4097319,241079,-320.042649907654
1769239929.450131,241139,-330.1712698751076
1769239929.5094213,241123,-339.44021794873026
1769239929.5493894,240814,-347.71305940860805
1769239929.6107702,240545,-355.0568745819444
1769239929.6504698,240563,-361.77020339533584
1769239929.7106695,240626,-368.23887380270565
1769239929.7504766,240681,-374.7799890140667
1769239929.8107414,240760,-381.59310174521175
1769239929.850458,240728,-388.7785170793244
1769239929.9104292,240710,-396.3840062541573
1769239929.9502642,240701,-404.44403800916155
1769239930.011742,240754,-412.97691212957886
1769239930.051458,240800,-421.95785722290077
1769239930.1116621,240889,-431.2989286786037
1769239930.151325,240957,-440.843178369837
1769239930.2117658,241081,-450.3663948481876
1769239930.2523568,241149,-459.5836839499014
1769239930.3116472,241222,-468.17051737479454
1769239930.3513052,241272,-475.79446195131976
1769239930.4117002,240952,-482.1865868505786
1769239930.4524395,240651,-487.2819780128016
1769239930.5129526,240542,-491.2936359046488
1769239930.5522485,240576,-494.6031059659845
1769239930.6128285,240607,-497.59039813393514
1769239930.6527915,240664,-500.5440997524457
1769239930.7126324,240675,-503.6497471658444
1769239930.7526116,240617,-507.02000163492863
1769239930.8127148,240579,-510.74145047680736
1769239930.852443,240605,-514.8915416476374
1769239930.9136677,240661,-519.5095976886925
1769239930.953346,240723,-524.562547484032
1769239931.0133963,240828,-529.9309447123187
1769239931.0534458,240920,-535.4066578753932
1769239931.1136384,241025,-540.7007268619051
1769239931.1530886,241057,-545.4698575115647
1769239931.2133815,241151,-549.352598316472
1769239931.2535136,241208,-551.990574510721
1769239931.314641,240971,-553.0756586456009
1769239931.3543386,240632,-552.4796993702664
1769239931.4147248,240556,-550.3455136153334
1769239931.4544353,240593,-546.9949073439087
1769239931.5143867,240682,-542.7524210973171
1769239931.5541828,240713,-537.8499213684845
1769239931.6148133,240714,-532.4310765381093
1769239931.6541796,240639,-526.6011046222164
1769239931.7154534,240633,-520.4700221237981
1769239931.7564995,240623,-514.1556774944946
1769239931.8153863,240731,-507.7493332512334
1769239931.8554828,240789,-501.27305384909647
1769239931.9154778,240939,-494.65587940196826
1769239931.9552832,240986,-487.7362012643833
1769239932.015402,241025,-480.295464149079
1769239932.055307,241064,-472.1060711850398
1769239932.1158977,241113,-462.9552893710717
1769239932.156302,240896,-452.68046272175343
1769239932.2165632,240535,-441.2796920514264
1769239932.2562828,240529,-428.99071681780714
1769239932.316944,240600,-416.1842002416629
1769239932.3561783,240677,-403.184464932005
1769239932.4166155,240721,-390.1990202434
1769239932.4563072,240701,-377.344275050707
1769239932.516756,240613,-364.703995933473
1769239932.5563698,240623,-352.37430236118877
1769239932.6177478,240664,-340.45093826994594
1769239932.6572807,240708,-328.9857752543217
1769239932.7176595,240818,-317.95985867421956
1769239932.7589552,240908,-307.26966466408015
1769239932.8175673,241015,-296.72605510673657
1769239932.8573213,241037,-286.0793882612858
1769239932.9177449,241127,-275.0579097469119
1769239932.9570596,241152,-263.3927885354977
1769239933.0186377,240815,-250.88109735185455
1769239933.0586512,240506,-237.5283174287644
1769239933.118694,240454,-223.61059966341665
1769239933.1581016,240491,-209.54337415081116
1769239933.218312,240565,-195.7059903181972
1769239933.258927,240607,-182.3631072929371
1769239933.318611,240580,-169.67478900929706
1769239933.3582592,240529,-157.74761556005345
1769239933.4185555,240506,-146.67611454452134
1769239933.4592931,240532,-136.54187802162903
1769239933.5196772,240599,-127.38104787971923
1769239933.5592191,240677,-119.15164672821558
1769239933.6196868,240779,-111.7194317514958
1769239933.659119,240881,-104.85962834652369
1769239933.7195513,240944,-98.27397947262554
1769239933.75931,241011,-91.62370110959074
1769239933.8196688,241059,-84.56223444541295
1769239933.8593316,241110,-76.75726176262896
1769239933.9203687,240930,-67.93301967622423
1769239933.9603956,240571,-57.97915809862106
1769239934.0206702,240402,-47.05345426804669
1769239934.0602846,240460,-35.52396836361044
1769239934.1208348,240497,-23.788602688024845
1769239934.1602378,240507,-12.16192374413317
1769239934.2203531,240494,-0.875580370527753
1769239934.2607553,240424,9.883705247537646
1769239934.3217058,240403,19.944024027881
1769239934.3614087,240393,29.146754533654697
1769239934.421481,240502,37.38003176737912
1769239934.461267,240593,44.627019110589714
1769239934.5217876,240740,50.99588877459631
1769239934.5613012,240791,56.71129287275255
1769239934.6217992,240864,62.07231756902629
1769239934.6612346,240881,67.4027589793451
1769239934.7216702,240957,73.0200618678889
1769239934.7632859,241003,79.22721617712494
1769239934.8225152,241117,86.31811472494788
1769239934.8623579,241152,94.58074676358284
1769239934.922685,240716,104.22089548531363
1769239934.962088,240580,115.20917882653883
1769239935.0227144,240571,127.266204479645
1769239935.06229,240621,140.02426498927906
1769239935.1226678,240631,153.1542187245793
1769239935.163255,240646,166.38877390963407
1769239935.2233994,240570,179.4994381014258
1769239935.2631633,240551,192.2644288832794
1769239935.3233945,240603,204.46996098581508
1769239935.3632514,240720,215.95941742746825
1769239935.4234416,240826,226.68368564344885
1769239935.4632275,240880,236.70482270464163
1769239935.523291,240955,246.1604502830964
1769239935.5633242,240970,255.22515068420483
1769239935.6243823,241009,264.08038590006197
1769239935.6642776,241041,272.89605779583036
1769239935.7247705,241163,281.8374062906066
1769239935.7681615,240990,291.05744770785276
1769239935.8243778,240671,300.5978557433582
1769239935.8641791,240647,310.29094073050777
1769239935.9244099,240693,319.8314567644734
1769239935.9640942,240697,328.9241941150498
1769239936.0255413,240755,337.3440319482661
1769239936.0653405,240711,344.9293864963467
1769239936.1256416,240661,351.55117077336575
1769239936.1651614,240692,357.08765125991494
1769239936.225269,240823,361.45571524699824
1769239936.2651496,240895,364.6670188125044
1769239936.3253498,240987,366.83895810170856
1769239936.365053,241045,368.16613306922204
1769239936.4256787,241088,368.88679868851744
1769239936.466418,241119,369.25132393407455
1769239936.526589,241171,369.5015600806009
1769239936.5662398,241273,369.87338531135043
1769239936.6265666,241002,370.56920703032796
1769239936.6661282,240780,371.64565700100457
1769239936.7263618,240719,372.9442740936706
1769239936.766151,240745,374.1796944475743
1769239936.8266253,240752,375.0683107754067
1769239936.8660548,240760,375.381526384854
1769239936.9274998,240743,374.9430110393454
1769239936.9671166,240691,373.60880143163996
1769239937.0276923,240729,371.2554038129948
1769239937.0675368,240791,367.8015524170621
1769239937.1275105,240930,363.25225029401696
1769239937.1671185,240977,357.72157148147477
1769239937.2273746,241055,351.41157461436484
1769239937.2672284,241085,344.57210491228386
1769239937.3285177,241140,337.47112668263276
1769239937.3680158,241172,330.37689756359845
1769239937.428406,241273,323.5539989697345
1769239937.4680867,241348,317.2733491918249
1769239937.5285082,241374,311.8094692989075
1769239937.568327,241036,307.3655876482658
1769239937.6283486,240776,303.93166654448817
1769239937.668302,240794,301.2455207717956
1769239937.7283082,240771,298.9300117165673
1769239937.7703083,240774,296.62632518383856
1769239937.8293884,240769,294.02794235613436
1769239937.8691258,240770,290.8815557491007
1769239937.9293046,240747,286.9840820920251
1769239937.9691193,240814,282.18338172434403
1769239938.029475,240900,276.40216008637424
1769239938.0692472,240947,269.6605121734153
1769239938.1292899,241030,262.06675152487304
1769239938.171098,241048,253.79236985115148
1769239938.2301567,241103,245.04560803921223
1769239938.2720597,241145,236.05226556268437
1769239938.3304892,241243,227.05476808800088
1769239938.3700857,241340,218.32314946778095
1769239938.4305608,241487,210.16712978309374
1769239938.4700484,241465,202.92307490434337
1769239938.5300636,241010,196.83912578731895
1769239938.570305,240879,191.9046640784221
1769239938.6316042,240928,187.8592471706546
1769239938.6712222,240939,184.3762991783015
1769239938.7315547,241013,181.1849674752391
1769239938.7735028,241029,178.0904208526586
1769239938.8315585,241049,174.96158813093015
1769239938.8710344,241052,171.7077421764314
1769239938.9314585,241104,168.26723880438175
1769239938.9711058,241134,164.61351545354034
1769239939.031385,241198,160.7615246383959
1769239939.07209,241222,156.76514902560731
1769239939.132444,241272,152.70659368890105
1769239939.1734204,241327,148.68827047072045
1769239939.2324216,241453,144.8413148938061
1769239939.2719836,241521,141.34031950715442
1769239939.332397,241233,138.3502593721064
1769239939.3721092,241045,135.88904348426158
1769239939.4324942,241024,133.77223994072412
1769239939.472988,241044,131.7172572737723
1769239939.5334325,241076,129.46163828297887
1769239939.5735033,241164,126.81415198838931
1769239939.6334743,241158,123.66560614114864
1769239939.6729674,241176,119.96703538974333
1769239939.7337036,241207,115.70280487661759
1769239939.77602,241259,110.89045491929664
1769239939.8334699,241311,105.59064830802728
1769239939.874116,241354,99.90655027510891
1769239939.9345498,241390,93.97200400211308
1769239939.974557,241452,87.93978714576937
1769239940.0344865,241538,81.98303911926061
1769239940.074185,241643,76.30668620484397
1769239940.1345186,241552,71.12998713293524
1769239940.1751962,241239,66.58582074499019
1769239940.2342849,241078,62.59756638705543
1769239940.2746415,241089,58.89175353431134
1769239940.3356369,241073,55.13351508736588
1769239940.3750267,241089,51.02503853032164
1769239940.4354503,241123,46.33284786326201
1769239940.475101,241108,40.892231007921986
1769239940.5352864,241146,34.59913052378148
1769239940.5752242,241178,27.406257714600486
1769239940.6354191,241226,19.32907390013639
1769239940.6752958,241258,10.44382782222382
1769239940.736666,241294,0.875626799777249
1769239940.7805,241310,-9.21743595729121
1769239940.8362284,241388,-19.6535036292468
1769239940.87625,241459,-30.21979821029446
1769239940.9364781,241600,-40.65668173333622
1769239940.9759288,241560,-50.664757863332035
1769239941.0365515,241108,-60.01481237933902
1769239941.0762594,240955,-68.71689410032597
1769239941.1374702,240939,-77.02177949212836
1769239941.1881533,240890,-85.25969349261096
1769239941.2371674,240934,-93.72744639681018
1769239941.2781625,240937,-102.65120106890568
1769239941.3375485,240941,-112.1768446191216
1769239941.3769085,240934,-122.38424235916933
1769239941.4370885,240953,-133.30113132900627
1769239941.4770098,240966,-144.90498551823075
1769239941.5371678,241006,-157.12137112766936
1769239941.5782657,241024,-169.82525164853652
1769239941.6381547,241077,-182.84649689023928
1769239941.6781867,241141,-195.971756799782
1769239941.7381968,241238,-208.93861228407397
1769239941.7814655,241311,-221.433527526458
1769239941.8383303,241388,-233.1048998837851
1769239941.8786464,241413,-243.59050769912741
1769239941.9381678,240931,-252.61504987344787
1769239941.9790208,240721,-260.15743388304924
1769239942.0391421,240677,-266.477574368308
1769239942.0801914,240705,-271.9465213637912
1769239942.138944,240737,-276.8921402567503
1769239942.1825783,240791,-281.5469924215119
1769239942.2390022,240745,-286.05413758513856
1769239942.2796996,240742,-290.50348278569277
1769239942.3395467,240738,-294.95766515666134
1769239942.3802896,240773,-299.4466707848822
1769239942.4401906,240809,-303.9527237835967
1769239942.4799979,240890,-308.39871347074154
1769239942.540158,240982,-312.6376807179013
1769239942.5802236,241080,-316.4482250783141
1769239942.639982,241153,-319.5463292243098
1769239942.6818042,241219,-321.61272482895845
1769239942.7403677,241288,-322.32090089839454
1769239942.7832105,241343,-321.3561824775928
1769239942.841218,241274,-318.44567801719364
1769239942.8809047,241006,-313.4375895796482
1769239942.941199,240868,-306.39250534783173
1769239942.9809792,240974,-297.55558961248977
1769239943.04116,241013,-287.2112279435691
1769239943.0810192,241068,-275.5868380286511
1769239943.1412313,241054,-262.85831814478024
1769239943.1843905,240999,-249.19159891570752
1769239943.242197,240948,-234.78144651918458
1769239943.2857757,240984,-219.85450155850006
1769239943.3424408,241093,-204.62081119217356
1769239943.3821566,241178,-189.21556124733019
1769239943.4423318,241301,-173.677431636786
1769239943.4819586,241320,-157.96632079114815
1769239943.542049,241377,-142.0042086416569
1769239943.582152,241411,-125.70917401800241
1769239943.6435807,241458,-109.00603525456384
1769239943.682976,241322,-91.85103848154415
1769239943.7433014,241012,-74.31733519359842
1769239943.7835934,241003,-56.666676352295426
1769239943.8433938,241098,-39.26937984499293
1769239943.8831534,241110,-22.45438584433096
1769239943.9431887,241150,-6.45956011072266
1769239943.983167,241102,8.538920825571036
1769239944.0441337,241057,22.38784522180699
1769239944.083975,241067,34.93656149432477
1769239944.1440926,241168,46.0644152636089
1769239944.187271,241240,55.73166067145893
1769239944.2439492,241377,64.0051829313603
1769239944.2841253,241420,71.05116855975224
1769239944.3442128,241469,77.09940836926704
1769239944.3842099,241488,82.39756562065878
1769239944.4451191,241551,87.18673647174712
1769239944.4849823,241606,91.70166155665454
1769239944.5452213,241728,96.18365300391821
1769239944.585027,241716,100.88304298381149
1769239944.645306,241334,105.97730972478993
1769239944.6849077,241201,111.4298653773564
1769239944.7453747,241213,116.9875621856156
1769239944.7884543,241177,122.32427417343538
1769239944.8462298,241174,127.13533943950507
1769239944.8859124,241164,131.15383115253942
1769239944.9465904,241124,134.15166791359056
1769239944.985811,241118,135.93454076255406
1769239945.0464294,241209,136.35563230948426
1769239945.08591,241271,135.35470803809432
1769239945.1464086,241331,132.97523145038116
1769239945.1920228,241383,129.3453990495028
1769239945.246392,241413,124.6507894309904
1769239945.2886884,241445,119.10935206831022
1769239945.3472376,241479,112.95298998934963
1769239945.3867917,241558,106.4245007834161
1769239945.4473858,241664,99.79115063488534
1769239945.4869459,241783,93.36195559698682
1769239945.5471709,241767,87.47469384019412
1769239945.5869563,241416,82.39613299880301
1769239945.6473727,241166,78.16553088314119
1769239945.687042,241154,74.56169901949096
1769239945.7482722,241155,71.24538707615139
1769239945.7915564,241166,67.89887433708512
1769239945.8481443,241225,64.27495082519069
1769239945.888196,241220,60.20604519849828
1769239945.9482653,241249,55.59396606563293
1769239945.988124,241259,50.392910114907586
1769239946.048374,241327,44.606978914913476
1769239946.0878336,241366,38.297208744454025
1769239946.1492693,241417,31.580350669158612
1769239946.1941526,241464,24.616551948285526
1769239946.249177,241568,17.604041963005283
1769239946.288883,241612,10.780744264213235
1769239946.3493097,241767,4.422332987789485
1769239946.3890424,241844,-1.1567690519103444
1769239946.4493804,241927,-5.6152502073617825
1769239946.4888914,241716,-8.651377798416538
1769239946.549241,241379,-10.139559434465014
1769239946.589915,241374,-10.217585624512266
1769239946.650283,241438,-9.185498700934478
1769239946.6897452,241506,-7.33345567201104
1769239946.7504246,241613,-4.864146070444634
1769239946.795335,241624,-1.8932182238567499
1769239946.8501692,241564,1.5058096256121911
1769239946.889778,241574,5.2451793513647855
1769239946.9503322,241611,9.217972265018227
1769239946.9909017,241655,13.332150570416548
1769239947.0514843,241744,17.536470345316737
1769239947.0908377,241794,21.83120423040642
1769239947.1513305,241898,26.2672311570148
1769239947.1936882,241985,30.94302896245665
1769239947.2512195,242060,35.99907530145169
1769239947.2929106,241911,41.57232015332317
1769239947.3512666,241512,47.66979952139248
1769239947.3919418,241460,54.05648774411839
1769239947.4523842,241478,60.324764036964616
1769239947.4919097,241529,66.06774483780717
1769239947.5524263,241599,70.97490134799882
1769239947.5917265,241639,74.84738363332872
1769239947.6520548,241630,77.57726386303537
1769239947.6919694,241634,79.10922640335538
1769239947.752343,241688,79.42310748413648
1769239947.7939823,241723,78.54508296670546
1769239947.853263,241776,76.55581878290852
1769239947.892705,241818,73.58448605376512
1769239947.953384,241918,69.80541144668618
1769239947.992762,241973,65.4405652417943
1769239948.0532413,242113,60.75969834553999
1769239948.0926678,242166,56.075837308554114
1769239948.1533978,241925,51.68544341502788
1769239948.1960225,241576,47.71771992033486
1769239948.2540586,241470,44.03211441208447
1769239948.2937741,241451,40.29911547418118
1769239948.3544044,241466,36.16068240171101
1769239948.3938866,241487,31.323044912247045
1769239948.4543622,241568,25.587316442990303
1769239948.4937522,241518,18.851355802481095
1769239948.5542393,241497,11.074159556549025
1769239948.593895,241508,2.241247071254709
1769239948.6551297,241552,-7.626504054438734
1769239948.6948376,241586,-18.450574444769547
1769239948.7552557,241669,-30.086500345791368
1769239948.7953105,241727,-42.322343179423974
1769239948.8552353,241837,-54.88107126488024
1769239948.8950207,241910,-67.42743778613506
1769239948.9550986,241972,-79.58629806096697
1769239948.9947402,242016,-90.97411155589862
1769239949.0553215,241596,-101.28498598548994
1769239949.0959244,241289,-110.45274493411344
1769239949.1560817,241191,-118.71487641122533
1769239949.1974096,241229,-126.46820797128498
1769239949.2560542,241250,-134.08611292479375
1769239949.2971365,241316,-141.83607217561095
1769239949.356168,241265,-149.87895589548816
1769239949.3958917,241247,-158.30873999090187
1769239949.4560397,241212,-167.1890249342444
1769239949.4968655,241241,-176.5557500668335
1769239949.5570955,241276,-186.3969304760918
1769239949.5967662,241344,-196.63189547148414
1769239949.657107,241434,-207.09945496977898
1769239949.696841,241537,-217.55326712508872
1769239949.757088,241622,-227.6689459132153
1769239949.7972965,241656,-237.07308475122665
1769239949.85677,241739,-245.38140530792484
1769239949.8968112,241779,-252.2209491783078
1769239949.9581187,241688,-257.260645166514
1769239949.997731,241345,-260.30554905440437
1769239950.0582507,241191,-261.40416679613924
1769239950.0979223,241247,-260.8168605615686
1769239950.1582046,241348,-258.8470711076052
1769239950.19913,241364,-255.7188783681561
1769239950.2580936,241386,-251.57663269422312
1769239950.297776,241320,-246.53348927898972
1769239950.3592298,241282,-240.71401477063196
1769239950.398744,241309,-234.26377132563508
1769239950.459192,241392,-227.3118193362149
1769239950.4990237,241458,-219.92494122340554
1769239950.5592456,241601,-212.0867588373957
1769239950.598734,241640,-203.6991348390493
1769239950.6592193,241701,-194.61175053735226
1769239950.698823,241717,-184.66494515386506
1769239950.7592266,241775,-173.71453806983112
1769239950.8003376,241602,-161.66264346496249
1769239950.8599467,241243,-148.5538159493398
1769239950.8996856,241224,-134.65735555958602
1769239950.9603264,241316,-120.37590629358672
1769239950.9999917,241378,-106.06833551355602
1769239951.060234,241414,-91.97996501863396
1769239951.0998116,241415,-78.26991749234666
1769239951.1603866,241324,-65.06167593809924
1769239951.2041602,241333,-52.48469610451313
1769239951.2612398,241351,-40.669385835796895
1769239951.3016837,241438,-29.704564601915514
1769239951.3612554,241543,-19.598146311952814
1769239951.4007483,241640,-10.258873348373223
1769239951.4610565,241695,-1.510048973363416
1769239951.5007813,241747,6.8727805874713175
1769239951.561329,241798,15.128595710993354
1769239951.6007438,241776,23.4853550382084
1769239951.6623328,241277,32.06754599510092
1769239951.7016506,241138,40.75092443417898
1769239951.7621791,241134,49.17762358245027
1769239951.803524,241188,56.94441726366469
1769239951.8619618,241222,63.73804290291643
1769239951.9016187,241219,69.354244014293
1769239951.9622495,241163,73.66352414630617
1769239952.0016954,241105,76.56622876918952
1769239952.0631595,241113,77.97537100634703
1769239952.1028914,241127,77.83781370594613
1769239952.1633284,241230,76.1703306882834
1769239952.204926,241279,73.0860535406433
1769239952.2626772,241416,68.80076908751279
1769239952.3026125,241447,63.62059493491861
1769239952.363246,241510,57.90892850860985
1769239952.402733,241541,52.046320908193145
1769239952.463189,241579,46.40525843859202
1769239952.5035975,241346,41.30246627009913
1769239952.5641034,240844,36.86423531299172
1769239952.6037524,240784,32.913257073227676
1769239952.6641572,240798,29.072370246922798
1769239952.7036297,240807,24.973012759607695
1769239952.7639594,240802,20.343893085034345
1769239952.8056884,240782,15.001414358305531
1769239952.864164,240681,8.818228571837123
1769239952.9047182,240653,1.689781987398794
1769239952.9650817,240655,-6.465473381524472
1769239953.004734,240720,-15.668858178419354
1769239953.0652344,240818,-25.84129612726697
1769239953.104719,240924,-36.78117377353813
1769239953.164876,240993,-48.17230879522013
1769239953.2066898,241032,-59.62318293001562
1769239953.265195,241075,-70.71449707405347
1769239953.3076684,241110,-81.03090056562348
1769239953.3660305,241172,-90.17391103755297
1769239953.405729,241198,-97.76782292934078
1769239953.4659834,240724,-103.53458400267353
1769239953.5056438,240581,-107.44123288213838
1769239953.5661325,240595,-109.70431845472882
1769239953.6056845,240584,-110.62110788296313
1769239953.6662788,240600,-110.4540860902522
1769239953.7055929,240605,-109.41353655140193
1769239953.7669683,240534,-107.6701266717955
1769239953.8073843,240484,-105.38575145103907
1769239953.866966,240554,-102.71871315733257
1769239953.9066045,240615,-99.77856547647407
1769239953.9669151,240758,-96.57869450008296
1769239954.0066779,240813,-93.023867869627
1769239954.066911,240882,-88.93635537601104
1769239954.1066,240881,-84.10421206305978
1769239954.167727,240926,-78.32160651779608
1769239954.2076898,240984,-71.40108199034945
1769239954.2681584,241053,-63.16312769909507
1769239954.3102229,240823,-53.465367954744295
1769239954.3682508,240546,-42.31485679523705
1769239954.4077027,240572,-29.932764216074265
1769239954.4681213,240606,-16.650485138349033
1769239954.5083003,240638,-2.771672084942419
1769239954.568268,240657,11.466796856343029
1769239954.6076303,240628,25.875861880889314
1769239954.669276,240553,40.27989004159495
1769239954.708679,240608,54.49722101954206
1769239954.7692728,240711,68.37704403732401
1769239954.8109531,240800,81.85622215752583
1769239954.8689165,240940,94.97893842120219
1769239954.9085414,240976,107.88103821488015
1769239954.9691336,241063,120.75254098458402
1769239955.008575,241097,133.80068237603413
1769239955.0699387,241157,147.2287999994669
1769239955.109712,241216,161.2255440039266
1769239955.1696606,241331,175.96968444349613
1769239955.2097936,241109,191.60583272428846
1769239955.2700937,240815,208.12943598236993
1769239955.3117867,240799,225.30110795667792
1769239955.3701472,240833,242.73714958648668
1769239955.409557,240841,260.0562993218534
1769239955.4699852,240850,276.93185759281914
1769239955.5106544,240826,293.08186235701044
1769239955.5710928,240782,308.2501307272708
1769239955.6105506,240839,322.2015055868198
1769239955.6709898,240935,334.75618400498445
1769239955.7106495,241021,345.83387537717465
1769239955.7710972,241102,355.4610690396471
1769239955.8128924,241169,363.74868535335895
1769239955.8709471,241217,370.86339551478574
1769239955.9105747,241271,377.00123077977815
1769239955.9718359,241326,382.3709075633561
1769239956.0117025,241394,387.1879996384473
1769239956.0720425,241496,391.67796361378385
1769239956.1116097,241620,396.08803170291714
1769239956.1716468,241728,400.69574496161295
1769239956.2117982,241468,405.7543793568954
1769239956.2719526,241067,411.33005011051887
1769239956.314032,241024,417.186303305363
1769239956.3727558,241045,422.8910052835311
1769239956.4125693,241044,428.00288975564183
1769239956.4726117,241084,432.150853462443
1769239956.512494,241092,435.04236332298683
1769239956.5728,241120,436.46082200381477
1769239956.6125832,241138,436.2582154535254
1769239956.6728206,241191,434.35250778772564
1769239956.7127702,241242,430.7315347218906
1769239956.7729595,241306,425.45551210284395
1769239956.8141768,241336,418.64860223029234
1769239956.8737466,241404,410.48263204708996
1769239956.914003,241491,401.1712796706994
1769239956.9736648,241609,390.97933967278595
1769239957.0137613,241695,380.22677898294614
1769239957.0737598,241783,369.2726358945878
1769239957.1137183,241869,358.4903803800031
1769239957.173611,241938,348.2483585780806
1769239957.2138915,241784,338.86480389211056
1769239957.2750227,241341,330.4808842718587
1769239957.314495,241311,322.94695665456453
1769239957.37507,241381,315.9124333819597
1769239957.4145613,241475,309.032096211929
1769239957.4747126,241570,302.0718615354131
1769239957.5146232,241562,294.9023495721723
1769239957.575101,241515,287.4421555168023
1769239957.6145449,241487,279.60050565948745
1769239957.6758406,241514,271.2687629048736
1769239957.7155557,241545,262.35114368470255
1769239957.7759356,241654,252.80019378916984
1769239957.815531,241713,242.64130615752856
1769239957.8761055,241839,231.97848799445143
1769239957.9159336,241900,220.985325239601
1769239957.9760044,241957,209.88150036698818
1769239958.015445,242000,198.89895964615218
1769239958.0761132,242070,188.2615748392622
1769239958.1165636,242079,178.176716501112
1769239958.1765776,241630,168.76012961675747
1769239958.2166648,241458,159.89307697669247
1769239958.276894,241514,151.22338618901833
1769239958.3166528,241558,142.3505954300035
1769239958.3770335,241609,132.96306721206452
1769239958.4164536,241634,122.85374904151962
1769239958.4769099,241555,111.88564413048579
1769239958.5173752,241515,99.9411885802339
1769239958.5780857,241518,86.90204693199756
1769239958.617471,241597,72.6826185628737
1769239958.6779373,241692,57.28059612381933
1769239958.7173874,241805,40.80614368004315
1769239958.7777824,241880,23.477609566745436
1769239958.8175817,241936,5.589428876630589
1769239958.8780293,241973,-12.529942704998493
1769239958.9178061,242010,-30.550983778246554
1769239958.979122,242072,-48.1577616492778
1769239959.018654,242134,-65.04671163959131
1769239959.0790381,241988,-80.94957280735277
1769239959.1184921,241643,-95.7344047086652
1769239959.1787093,241460,-109.51600355243731
1769239959.2187693,241447,-122.62433654387256
1769239959.2785146,241445,-135.45325243396866
1769239959.3186595,241451,-148.34797528753933
1769239959.3800042,241423,-161.57994207820676
1769239959.419442,241356,-175.36519490591738
1769239959.4799898,241336,-189.88737128416633
1769239959.519602,241374,-205.2901612904667
1769239959.5799885,241490,-221.63376356308507
1769239959.6207662,241520,-238.86002112647276
1769239959.6801653,241599,-256.8032801069757
1769239959.7195385,241629,-275.22290433208514
1769239959.7805552,241665,-293.8316895958222
1769239959.8204212,241689,-312.3220705943685
1769239959.8807204,241792,-330.37544559185295
1769239959.9204867,241845,-347.6526056774658
1769239959.9806888,242010,-363.7836362484201
1769239960.020423,241924,-378.3830769503273
1769239960.0807314,241326,-391.18726356508193
1769239960.1207237,241113,-402.2635162161521
1769239960.1804476,241054,-412.00553397640624
1769239960.2216265,241027,-420.91864051325854
1769239960.2816818,241050,-429.46081438243823
1769239960.3216743,241071,-437.9892476615815
1769239960.3817997,241028,-446.754951188234
1769239960.4213998,241021,-455.9286463107198
1769239960.481636,241019,-465.6194928559497
1769239960.521424,241060,-475.8687176421413
1769239960.581709,241120,-486.63408845471514
1769239960.6215787,241165,-497.78259323123797
1769239960.683165,241223,-509.1007276592813
1769239960.7229555,241275,-520.3130047114107
1769239960.7826219,241360,-531.0951401652065
1769239960.8223884,241457,-541.0783674893819
1769239960.8829842,241574,-549.8496217696769
1769239960.9224126,241618,-556.965483804318
1769239960.9824522,241294,-562.0365001297508
1769239961.022532,240887,-564.9031169996783
1769239961.0837448,240683,-565.7511162933749
1769239961.1234448,240662,-565.020497840639
1769239961.1835759,240722,-563.2020644867403
1769239961.223745,240771,-560.6928095038973
1769239961.2834895,240794,-557.7582266844074
1769239961.3234437,240704,-554.5686104817242
1769239961.3840032,240638,-551.2630452928533
1769239961.4235225,240633,-547.9799991147887
1769239961.4849973,240667,-544.8301582006957
1769239961.5244482,240685,-541.8592376590234
1769239961.584953,240768,-539.0338026083056
1769239961.6243901,240811,-536.2381925178248
1769239961.6849375,240907,-533.2787854169952
1769239961.7243986,240962,-529.8961097393427
1769239961.7845416,240964,-525.7919562238699
1769239961.8246305,240601,-520.7199017810887
1769239961.8849633,239994,-514.6751249837223
1769239961.9279373,239865,-508.0234937547422
1769239961.985815,239787,-501.37136435065895
1769239962.0255535,239811,-495.3211289462716
1769239962.0857527,239846,-490.3352100804531
1769239962.125376,239826,-486.7057675031301
1769239962.185642,239707,-484.5920624749315
1769239962.2255645,239679,-484.0824618709799
1769239962.2854617,239685,-485.2066520834519
1769239962.3262033,239728,-487.90222272403423
1769239962.386914,239791,-491.98891386051275
1769239962.426325,239829,-497.1693297446076
1769239962.486653,239919,-503.0464729609433
1769239962.5264475,239976,-509.1421193090654
1769239962.5869029,240116,-514.9089800058288
1769239962.6263516,240199,-519.7398527743452
1769239962.6869855,239863,-523.042715791972
1769239962.726392,239276,-524.4544559756466
1769239962.786373,238824,-524.0493565003527
1769239962.8275642,238732,-522.3047100136614
1769239962.8880007,238666,-519.8533467866207
1769239962.9274082,238664,-517.2668194498598
1769239962.9876828,238680,-514.9697579688685
1769239963.027339,238594,-513.2336039961144
1769239963.0881011,238489,-512.222104620133
1769239963.1274104,238498,-512.0334204978495
1769239963.1876483,238542,-512.6795311970694
1769239963.2285461,238595,-514.0446147809572
1769239963.2885017,238674,-515.8758089271207
1769239963.3286545,238763,-517.7952431185694
1769239963.388659,238886,-519.3138325850011
1769239963.4283786,238996,-519.8472735994773
1769239963.4886453,239117,-518.7404906611582
1769239963.528425,239194,-515.3032916003199
1769239963.5886493,239342,-508.8448567266944
1769239963.6284723,239041,-498.74268279614523
1769239963.689585,238215,-484.6656450104964
1769239963.7294188,237978,-466.81622229370805
1769239963.7894816,237916,-445.83890061772934
1769239963.8296592,237893,-422.49789083919205
1769239963.8896868,238015,-397.4667025702717
1769239963.9293997,238004,-371.25751336629605
1769239963.9896142,237939,-344.2392134250854
1769239964.029443,237892,-316.7073873085091
1769239964.0906224,237942,-288.9104101362986
1769239964.1304727,238010,-261.01479813298295
1769239964.1904235,238199,-233.0574565595759
1769239964.230572,238292,-204.91902136066955
1769239964.2904878,238508,-176.33221277754043
1769239964.330561,238622,-146.90776130006995
1769239964.3905532,238764,-116.17269471614611
1769239964.4303987,238862,-83.6218620595074
1769239964.490613,239006,-48.75675086547212
1769239964.5317512,239091,-11.108065184711952
1769239964.5915349,238639,29.671389152183878
1769239964.6312535,238308,73.60943455548362
1769239964.691889,238225,120.33420268573141
1769239964.7313817,238300,169.2437090742968
1769239964.7916822,238382,219.726665005792
1769239964.8314488,238464,271.2663246997984
1769239964.8918996,238421,323.4364898066097
1769239964.9324996,238378,375.843975311383
1769239964.9928205,238377,428.0865052474887
1769239965.0326252,238463,479.77234666326444
1769239965.0930715,238635,530.5845991516095
1769239965.1323743,238788,580.3401208895737
1769239965.192304,238926,629.0001125506088
1769239965.2325234,238996,676.6302342775766
1769239965.2926228,239076,723.3437900108931
1769239965.3325863,239162,769.2637715062516
1769239965.393823,239266,814.5142987247472
1769239965.4332776,239071,859.1865743251971
1769239965.4936585,238548,903.1939723537688
1769239965.5366883,238452,946.1266981118603
1769239965.5940447,238514,987.3430566027039
1769239965.6333647,238536,1026.2041487470506
1769239965.693933,238610,1062.19507871991
1769239965.7332327,238579,1094.9276184304033
1769239965.7942922,238494,1124.0972935415355
1769239965.8345447,238494,1149.4366125832344
1769239965.8950634,238623,1170.734233443003
1769239965.934289,238742,1187.9070533140348
1769239965.994907,238947,1201.0489361486357
1769239966.0374856,239018,1210.4271294339105
1769239966.0947871,239148,1216.4346735753377
1769239966.1342583,239199,1219.5327124468536
1769239966.1954637,239311,1220.2120040825357
1769239966.2356994,239385,1218.9727013011068
1769239966.2958305,239351,1216.2962661371948
1769239966.3356225,238890,1212.5369191411567
1769239966.395589,238552,1207.7478480287134
1769239966.4353485,238502,1201.6478281191673
1769239966.495795,238498,1193.8017076290184
1769239966.5362933,238490,1183.8044727343054
1769239966.5957065,238512,1171.3451961368114
1769239966.6364496,238456,1156.2071897584249
1769239966.6966243,238430,1138.245810661595
1769239966.7362905,238481,1117.3792958939891
1769239966.796388,238622,1093.6262279877599
1769239966.8366792,238749,1067.156086564897
1769239966.8967938,238892,1038.30123247819
1769239966.9367168,238997,1007.5287984397683
1769239966.9965122,239069,975.3922275989604
1769239967.037609,239158,942.48049613374
1769239967.0979662,239267,909.3892991897909
1769239967.137317,239387,876.715741885673
1769239967.19749,239567,845.0628060511922
1769239967.2374444,239420,815.0084888209582
1769239967.2979124,238749,786.9282105335934
1769239967.3375535,238556,760.7691539715753
1769239967.397725,238502,736.090973883762
1769239967.4372349,238479,712.319961696341
1769239967.4987285,238536,688.9222584165346
1769239967.5423834,238525,665.4605206876228
1769239967.5989401,238507,641.5949749961877
1769239967.6383665,238526,617.0614549840623
1769239967.6987512,238645,591.680991027024
1769239967.7381775,238713,565.394476470784
1769239967.7984421,238874,538.2780344711927
1769239967.838417,238949,510.53452919481407
1769239967.8994794,239063,482.46656941339876
1769239967.9446294,239151,454.4411008983491
1769239967.9997828,239292,426.8683470407966
1769239968.0415418,239391,400.1917420547187
1769239968.0994403,239604,374.88325552776774
1769239968.1393952,239703,351.4419531648737
1769239968.1994364,239170,330.28752732082955
1769239968.2419193,238861,311.52290504713386
1769239968.2991912,238720,294.8425346094268
1769239968.3455024,238746,279.7047847304973
1769239968.400727,238801,265.54638860454753
1769239968.4403133,238895,251.89902799781336
1769239968.5006459,238878,238.4148378655081
1769239968.5425618,238862,224.82879173676878
1769239968.6007605,238911,210.9217857335899
1769239968.6403198,238972,196.53071334226055
1769239968.7007372,239080,181.5778887564372
1769239968.7401528,239163,166.0848848835105
1769239968.8011794,239279,150.16774819909523
1769239968.841795,239364,134.02150685733255
1769239968.9017625,239486,117.90240708276089
1769239968.94122,239618,102.11675394432189
1769239969.0014188,239486,86.98307653731419
1769239969.0440984,239027,72.688685589999
1769239969.1017556,238725,59.10835799755833
1769239969.1415248,238695,45.80489143204665
1769239969.2024424,238702,32.225926310848095
1769239969.2423706,238763,17.884303344287893
1769239969.302549,238825,2.428756250149808
1769239969.3423848,238790,-14.357013229826256
1769239969.402435,238827,-32.59144133524383
1769239969.4421563,238909,-52.31064220699995
1769239969.5024123,239000,-73.44652655772185
1769239969.5446572,239126,-95.81129504580619
1769239969.602767,239245,-119.10085205373294
1769239969.6431456,239333,-142.91475123642078
1769239969.7035828,239445,-166.79026207349781
1769239969.7432563,239588,-190.22522713556984
1769239969.8034084,239746,-212.68043709504022
1769239969.843357,239904,-233.5821711495632
1769239969.9035468,239942,-252.3522280060769
1769239969.9432435,239510,-268.5297366236905
1769239970.003422,238958,-282.0011361823688
1769239970.0467832,238871,-293.1181603436721
1769239970.104352,238855,-302.52249132180486
1769239970.1443892,238880,-310.88412573948415
1769239970.2043962,238957,-318.77295243889307
1769239970.2441702,238979,-326.6264977282225
1769239970.3045864,238991,-334.7606572775607
1769239970.3444438,238995,-343.40249193929253
1769239970.4045634,239103,-352.70028657448404
1769239970.4443533,239161,-362.7043544080357
1769239970.5053701,239292,-373.3542086433939
1769239970.545198,239375,-384.48404655980664
1769239970.6053443,239549,-395.83147044005796
1769239970.6452968,239628,-407.048809084036
1769239970.7053778,239833,-417.72042853220665
1769239970.7453663,239922,-427.3792144037044
1769239970.8053677,240092,-435.5288230892223
1769239970.845179,240159,-441.67580839957657
1769239970.9055738,239592,-445.4481239221557
1769239970.9461894,239165,-446.83447178086607
1769239971.006529,238982,-446.286284714996
1769239971.0489273,238996,-444.5299592448921
1769239971.1064327,239069,-442.3061439718075
1769239971.1461713,239170,-440.21807401326254
1769239971.206265,239162,-438.69810556764554
1769239971.2464528,239140,-438.0526553757397
1769239971.3063006,239122,-438.5183788077015
1769239971.3474138,239175,-440.27512161155477
1769239971.4077601,239296,-443.41412250249545
1769239971.4555743,239441,-447.8938319273046
1769239971.5073738,239621,-453.5158190740047
1769239971.5474696,239766,-459.9314506949077
1769239971.6075516,239909,-466.67549896541556
1769239971.6471798,240004,-473.2155544664837
1769239971.7071714,240121,-478.9996566093743
1769239971.7480583,240230,-483.487065925484
1769239971.8082027,240237,-486.17649506205095
1769239971.8483098,239852,-486.7027755759915
1769239971.9085195,239446,-485.01295921373537
1769239971.94846,239482,-481.42344123067824
1769239972.0084317,239535,-476.432497861606
1769239972.0487938,239601,-470.50353720362557
1769239972.1084096,239682,-463.9931918029537
1769239972.1483526,239648,-457.16559238830087
1769239972.2093565,239588,-450.24311005657984
1769239972.2491004,239586,-443.4524597240051
1769239972.3093445,239728,-437.0019573499266
1769239972.3492641,239830,-431.0115126996072
1769239972.4095902,240021,-425.4685263307587
1769239972.4495046,240093,-420.2318090374932
1769239972.5094676,240191,-415.07295447708753
1769239972.5530088,240238,-409.72959480227934
1769239972.6105876,240337,-403.93743634005733
1769239972.6502368,240339,-397.4474875265007
1769239972.710463,239798,-390.1225011302089
1769239972.7501247,239516,-382.12155933387055
1769239972.81034,239525,-373.9216131165642
1769239972.8503664,239564,-366.1013118134295
1769239972.9107375,239639,-359.1479013273103
1769239972.9507356,239669,-353.4046866206078
1769239973.0107222,239597,-349.0995344437604
1769239973.053723,239545,-346.4059905777388
1769239973.1116228,239563,-345.4729684421783
1769239973.151356,239662,-346.3902328364257
1769239973.2116973,239805,-349.12847345632935
1769239973.2511404,239952,-353.5027236400722
1769239973.3115366,240059,-359.18035352767953
1769239973.3515062,240152,-365.7249338307536
1769239973.4112966,240218,-372.64857551866066
1769239973.4522994,240300,-379.45173352211333
1769239973.5126197,240324,-385.651402913166
1769239973.5579138,239958,-390.859037089131
1769239973.6127627,239366,-394.96757435380636
1769239973.6531355,239293,-398.27366708076283
1769239973.7127635,239263,-401.32513071087584
1769239973.7521174,239250,-404.6723128998052
1769239973.8123257,239276,-408.7588381500646
1769239973.8521042,239231,-413.91010854813436
1769239973.9135103,239130,-420.3607389757949
1769239973.953129,239127,-428.29204774855884
1769239974.01356,239209,-437.8152560954902
1769239974.0558603,239313,-448.9127330095296
1769239974.1132495,239502,-461.3954953082899
1769239974.153113,239571,-474.9011469838909
1769239974.2132046,239683,-488.93828446423333
1769239974.2530808,239727,-502.94844686663646
1769239974.3145654,239824,-516.3500151538224
1769239974.3541558,239879,-528.5632455976116
1769239974.4144444,240052,-539.0158728616765
1769239974.4540596,239819,-547.1747201019
1769239974.5144892,239099,-552.7294493089632
1769239974.5597408,238840,-555.8232793857622
1769239974.6146483,238756,-557.0027854536432
1769239974.6540496,238705,-556.9456227121625
1769239974.7153957,238737,-556.272109670796
1769239974.7556615,238705,-555.4822547278625
1769239974.8154233,238630,-554.9586400872276
1769239974.8553069,238609,-554.9998747359072
1769239974.9153564,238724,-555.8130651471687
1769239974.9550436,238829,-557.4583718222119
1769239975.0152655,238969,-559.8144426962267
1769239975.0596244,239058,-562.5940359915088
1769239975.1154609,239177,-565.3851517785889
1769239975.156156,239250,-567.6941689418644
1769239975.2163236,239359,-568.9825308612197
1769239975.2559812,239487,-568.6885328070782
1769239975.3166163,239670,-566.2275307745309
1769239975.356076,239778,-560.9930898425864
1769239975.4163275,239131,-552.4821110948969
1769239975.4559784,238752,-540.5649470096246
1769239975.5162466,238573,-525.5894738191381
1769239975.5600557,238554,-508.1838574870955
1769239975.6175742,238589,-489.015103130782
1769239975.6573658,238650,-468.65899783544785
1769239975.7172534,238626,-447.5657700336015
1769239975.7569513,238614,-426.0881095957499
1769239975.8177564,238673,-404.5070476014118
1769239975.8573184,238762,-383.01477839414645
1769239975.917519,238916,-361.6796947892746
1769239975.9570053,239012,-340.43174562814636
1769239976.0184596,239103,-319.08604740477114
1769239976.060289,239141,-297.3932800238662
1769239976.1183665,239248,-275.0808720918045
1769239976.1581447,239358,-251.86141674800152
1769239976.218397,239409,-227.43337415180727
1769239976.257995,239011,-201.56410583543277
1769239976.3181896,238496,-174.29133030916972
1769239976.3579817,238379,-146.0430837130492
1769239976.419206,238380,-117.4894904411264
1769239976.4717288,238432,-89.29454839355012
1769239976.5193684,238553,-61.978469872508406
1769239976.5604668,238513,-35.8915944412122
1769239976.619453,238509,-11.260303451059423
1769239976.658915,238571,11.766860789466238
1769239976.7194905,238653,33.13085988825368
1769239976.759049,238766,52.889266505727285
1769239976.8191993,238900,71.22425304957775
1769239976.8601656,238991,88.43194782689237
1769239976.9205248,239091,104.89033524096696
1769239976.9603539,239205,121.02527003158424
1769239977.0204432,239372,137.29907217657097
1769239977.0653121,239191,154.17223432833282
1769239977.1200182,238425,171.90728113087516
1769239977.1599798,238174,190.31911800871833
1769239977.2199602,238062,208.8126420739624
1769239977.2612765,238018,226.65787155776118
1769239977.3212717,238041,243.18647380115868
1769239977.3611608,238082,257.86984667446427
1769239977.4211426,238008,270.33527321659164
1769239977.4609776,238039,280.3348690558278
1769239977.5212393,238127,287.7383541945142
1769239977.564207,238205,292.56389395249266
1769239977.621175,238341,294.99190477223954
1769239977.6611333,238432,295.35306298224185
1769239977.7222776,238547,294.10113989442095
1769239977.7619524,238640,291.77693313069835
1769239977.8220413,238819,288.9849818871689
1769239977.8625026,238939,286.38549989063
1769239977.9222567,238507,284.6038630098439
1769239977.961926,237946,283.9849120762358
1769239978.0221715,237614,284.40249742271544
1769239978.0619524,237548,285.35457658200056
1769239978.1232867,237531,286.2244875243492
1769239978.163008,237579,286.4749754388766
1769239978.223052,237601,285.721458193937
1769239978.2629018,237555,283.7273831454615
1769239978.323475,237624,280.3721266208695
1769239978.3629906,237718,275.6525348740929
1769239978.423277,237875,269.71534556183383
1769239978.4642832,237978,262.86772680247947
1769239978.5230591,238129,255.55271466685906
1769239978.5640109,238201,248.3080887520797
1769239978.6240206,238345,241.72438738837553
1769239978.664056,238463,236.41779659329129
1769239978.7244315,237992,232.93997878271017
1769239978.7639644,237535,231.5527359549995
1769239978.8242698,237283,232.08046706615625
1769239978.864106,237313,234.04001857561622
1769239978.9246342,237347,236.89525776414592
1769239978.9651084,237437,240.21956360075419
1769239979.025293,237466,243.73494029500336
1769239979.0663223,237472,247.2857637059396
1769239979.1253173,237561,250.8047753153288
1769239979.1650236,237721,254.32119790443681
1769239979.2252498,237938,258.0026746469468
1769239979.2650168,238076,262.1713445355469
1769239979.3251982,238269,267.27087491902995
1769239979.3652306,238377,273.81557251920066
1769239979.4260623,238544,282.34496526129203
1769239979.4661734,238553,293.37632205140414
1769239979.5264366,238025,307.2736801716192
1769239979.5685742,237815,324.0472433800635
1769239979.6263027,237868,343.34547647864133
1769239979.6658783,237934,364.6799272303473
1769239979.7262695,238087,387.61245182257096
1769239979.7660375,238158,411.8114941489081
1769239979.8274834,238188,437.03341517458
1769239979.8668628,238212,463.07115714383576
1769239979.9271586,238369,489.73692963051354
1769239979.9671102,238512,516.8998874917861
1769239980.0271735,238796,544.535739776945
1769239980.0668344,238944,572.749458975077
1769239980.127314,239172,601.7526176253183
1769239980.167069,239269,631.8118160097956
1769239980.2284338,239451,663.1991762624014
1769239980.2679505,239562,696.1609008939279
1769239980.3283136,239757,730.9073670339978
1769239980.3682134,239534,767.5693976241012
1769239980.4282093,239269,806.0623726842804
1769239980.4678152,239291,845.9959511805243
1769239980.5283477,239400,886.7865820982985
1769239980.5701938,239489,927.8361964350331
1769239980.6283534,239619,968.61136647336
1769239980.6688092,239654,1008.6472200777743
1769239980.7292292,239679,1047.5188945398036
1769239980.768932,239765,1084.8157799609633
1769239980.8293862,239989,1120.1723185337337
1769239980.8689818,240108,1153.3280639807326
1769239980.929259,240276,1184.139751240798
1769239980.9688318,240377,1212.550069678473
1769239981.0289516,240505,1238.5560583647894
1769239981.0788145,240589,1262.1844319599827
1769239981.130223,240662,1283.4692332014286
1769239981.1759217,240441,1302.3959353098498
1769239981.230004,240258,1318.797018687838
1769239981.2699428,240325,1332.3215443163147
1769239981.3299687,240427,1342.5580224993878
1769239981.3697712,240517,1349.170470470084
1769239981.430189,240596,1351.935390723728
1769239981.4709556,240581,1350.714875162397
1769239981.5309005,240584,1345.4106748682332
1769239981.5745869,240682,1335.9472746182835
1769239981.6312373,240822,1322.3118881189669
1769239981.670984,240948,1304.6012537839724
1769239981.7313268,241089,1283.0288737017663
1769239981.7709796,241201,1257.905319539746
1769239981.8312168,241271,1229.6051538184645
1769239981.8720562,241310,1198.5217054406346
1769239981.9323568,240879,1164.9686251220369
1769239981.9731174,240685,1129.0288950220222
1769239982.0321758,240684,1090.5358588767094
1769239982.0742333,240781,1049.2468160049768
1769239982.1320314,240852,1005.0063016764121
1769239982.2022128,240915,957.7905889605343
1769239982.258417,240905,907.6806754609521
1769239982.3086686,240888,854.8130200687732
1769239982.3478105,240905,799.34613716095
1769239982.3864865,240968,741.4664872688492
1769239982.4330564,241111,681.4246275855023
1769239982.4728274,241243,619.5732420324838
1769239982.5334375,241388,556.3775909769245
1769239982.5785499,241447,492.38687012266405
1769239982.6333225,241548,428.18439726433826
1769239982.6727734,241615,364.3498038869755
1769239982.733816,241694,301.4403568752842
1769239982.774874,241458,239.93932420237599
1769239982.8343837,241020,180.114925229123
1769239982.8740106,240959,121.91001181508712
1769239982.934261,241032,65.05005673222755
1769239982.9739032,241052,9.253018267201174
1769239983.0344758,241125,-45.67638306591696
1769239983.0780718,241102,-99.851887945075
1769239983.1353903,241060,-153.3416412505351
1769239983.1822643,241027,-206.20838724397225
1769239983.235266,241122,-258.5062430804763
1769239983.2752762,241193,-310.23254436143066
1769239983.335249,241351,-361.2856265493063
1769239983.3749876,241450,-411.45245215305437
1769239983.4352233,241548,-460.4269629736078
1769239983.4783154,241601,-507.8526319063322
1769239983.5355146,241666,-553.3647634875584
1769239983.5815542,241728,-596.615404159604
1769239983.6360626,241801,-637.2818294430386
1769239983.6757145,241586,-675.1040649162701
1769239983.7363365,241140,-710.0154198751052
1769239983.776468,241094,-742.2526109323444
1769239983.8363194,241119,-772.2566699549606
1769239983.875911,241153,-800.4744502705719
1769239983.9364135,241179,-827.2675432403163
1769239983.977796,241206,-852.9100229991665
1769239984.0369759,241138,-877.611148105984
1769239984.0834363,241173,-901.5449293275689
1769239984.136927,241263,-924.8412206955528
1769239984.1815295,241371,-947.5399535996634
1769239984.237009,241470,-969.56715267934
1769239984.2779267,241567,-990.7479656483322
1769239984.3372405,241651,-1010.8337733254939
1769239984.3769987,241701,-1029.5340864270809
1769239984.437926,241779,-1046.547424244044
1769239984.4790704,241851,-1061.5774923636848
1769239984.5379477,241988,-1074.3301272349352
1769239984.5825856,241963,-1084.518309698099
1769239984.6380985,241533,-1091.959674367017
1769239984.6777723,241387,-1096.733704032883
1769239984.7379682,241422,-1099.1753860309495
1769239984.7787056,241447,-1099.6974942908425
1769239984.8390396,241515,-1098.6621497976196
1769239984.878834,241539,-1096.3534743994721
1769239984.9392307,241528,-1092.9925937158714
1769239984.9803612,241494,-1088.7720862274637
1769239985.0389166,241601,-1083.8666634629863
1769239985.0819154,241665,-1078.3979099805929
1769239985.1393247,241736,-1072.40688857282
1769239985.184802,241772,-1065.8691504032536
1769239985.2398794,241836,-1058.7207874761168
1769239985.2797556,241874,-1050.8733029681623
1769239985.3400106,241981,-1042.2165226264622
1769239985.380285,241912,-1032.6291894381152
1769239985.4400423,241438,-1022.0794938274216
1769239985.4805233,241283,-1010.7788001988414
1769239985.5400364,241259,-999.1671100592707
1769239985.5844672,241291,-987.7315973466237
1769239985.6409123,241338,-976.8714287983358
1769239985.7099283,241344,-966.8642717689618
1769239985.7685785,241271,-957.8923431182332
1769239985.8250954,241264,-950.0876680052121
1769239985.871046,241345,-943.5336876807039
1769239985.91872,241422,-938.2213314579532
1769239985.9753735,241485,-934.0254535518405
1769239986.0265086,241544,-930.7233708990152
1769239986.0715573,241616,-928.0221931799928
1769239986.1140308,241654,-925.5803158662073
1769239986.1544597,241733,-923.0273788003329
1769239986.2011926,241801,-919.9758082061409
1769239986.245293,241580,-916.0633595812463
1769239986.2941985,241140,-911.0928242982643
1769239986.3419101,240800,-905.184897510382
1769239986.3827808,240754,-898.7572378665649
1769239986.4418797,240711,-892.3342849384601
1769239986.4829888,240722,-886.3802910058281
1769239986.5429168,240703,-881.2415880056938
1769239986.583367,240650,-877.1516303914661
1769239986.6429296,240595,-874.2600820330031
1769239986.6827416,240637,-872.6457169241232
1769239986.743023,240693,-872.290288639396
1769239986.7839046,240758,-873.0507212837804
1769239986.8429544,240802,-874.6646537680082
1769239986.8827925,240856,-876.7782144828748
1769239986.944082,240906,-878.9735760390997
1769239986.9893274,240969,-880.7890236200844
1769239987.0437315,241076,-881.7284748231741
1769239987.090701,241083,-881.2729682540667
1769239987.1440282,240406,-879.0047002010165
1769239987.1923995,240011,-874.8530420907973
1769239987.2438364,239861,-869.1629481771149
1769239987.285249,239812,-862.481286083307
1769239987.3447552,239773,-855.3368624649831
1769239987.384781,239782,-848.1505455460434
1769239987.4450667,239724,-841.2170797017673
1769239987.48702,239661,-834.7256368468619
1769239987.5451741,239715,-828.778651580576
1769239987.585698,239740,-823.3727928397076
1769239987.6450934,239850,-818.3735366875113
1769239987.687577,239896,-813.5138846385564
1769239987.746278,239999,-808.4137321708924
1769239987.7870922,240057,-802.6083741638429
1769239987.8461957,240180,-795.5725904580244
1769239987.8886735,240255,-786.7389523171165
1769239987.9457293,240426,-775.5110001862511
1769239988.007927,240146,-761.3190461028422
1769239988.0541697,239476,-743.8230295999767
1769239988.0961096,239298,-723.1243097132651
1769239988.145873,239276,-699.6814506038129
1769239988.1902938,239307,-674.0329752362064
1769239988.246617,239364,-646.628731820135
1769239988.2886078,239393,-617.7930753113097
1769239988.346984,239332,-587.7489963862222
1769239988.3869681,239378,-556.6621608698186
1769239988.447067,239448,-524.6442816398898
1769239988.4876502,239535,-491.72316790060074
1769239988.5469394,239635,-457.8305985594253
1769239988.590826,239721,-422.81331676420973
1769239988.6479733,239795,-386.45692021737466
1769239988.687739,239888,-348.51339609312987
1769239988.7479196,240021,-308.7133579919976
1769239988.7879646,240068,-266.773318596099
1769239988.8480132,239549,-222.49804513037577
1769239988.888251,239320,-175.97848851077393
1769239988.9479249,239261,-127.63330855730038
1769239988.9877515,239318,-78.02395303543892
1769239989.0490577,239400,-27.670636123646098
1769239989.0887043,239442,23.01828749910441
1769239989.148983,239428,73.73378398402295
1769239989.1969655,239455,124.22436151449901
1769239989.2488155,239561,174.2882725290028
1769239989.2887034,239626,223.79978312251262
1769239989.3491957,239749,272.72221117654516
1769239989.390015,239821,321.099297452415
1769239989.4499195,239924,369.0374263040207
1769239989.4895608,240000,416.684314713927
1769239989.550319,240160,464.21954928121704
1769239989.5913196,240271,511.8590651841617
1769239989.6501539,239892,559.7867338464537
1769239989.691237,239518,607.960562844517
1769239989.7500672,239412,655.9993401988678
1769239989.7896948,239400,703.3082821654655
1769239989.8512301,239440,749.2770009658446
1769239989.8953514,239464,793.3841005320783
1769239989.9510636,239505,835.2213847068305
1769239989.993306,239496,874.4845482444169
1769239990.05104,239574,910.9595203087848
1769239990.091442,239630,944.5263255942936
1769239990.151302,239754,975.173375609129
1769239990.1983092,239819,1003.0003305047526
1769239990.250803,239925,1028.2023381865042
1769239990.2915475,239989,1051.0452335483674
1769239990.351877,240092,1071.8438171205598
1769239990.3916218,240195,1090.9493071695733
1769239990.4519155,240362,1108.7508888452
1769239990.506315,240438,1125.6752330560175
1769239990.5814264,239889,1142.0787039349905
1769239990.6474407,239576,1158.0194238728182
1769239990.7012084,239455,1173.1794093076533
1769239990.751941,239444,1187.0416918582262
1769239990.8010232,239461,1199.0894677141848
1769239990.8443942,239540,1208.9049926936457
1769239990.8983395,239553,1216.203369909451
1769239990.9425657,239576,1220.8209908625247
1769239990.9975674,239606,1222.687880262864
1769239991.040823,239663,1221.817071657842
1769239991.0837917,239754,1218.3106649864976
1769239991.1251054,239844,1212.3675959871368
1769239991.166039,239932,1204.278881200837
1769239991.2292883,240057,1194.4130660522364
1769239991.2689207,240170,1183.2054571234444
1769239991.307514,240302,1171.1467717216997
1769239991.3537006,240445,1158.7685989185836
1769239991.3936455,240514,1146.621322350703
1769239991.4542289,240009,1135.161363774288
1769239991.5033002,239689,1124.5368289703033
1769239991.555183,239577,1114.5122317607538
1769239991.5962386,239608,1104.6409154740836
1769239991.6551614,239707,1094.4800859314214
1769239991.69507,239785,1083.7041216175758
1769239991.7550988,239806,1072.1193641697416
1769239991.795567,239745,1059.6136752732048
1769239991.854891,239783,1046.1025922748306
1769239991.8959157,239803,1031.5247810547721
1769239991.9557009,239898,1015.870377223169
1769239992.0072484,239952,999.2016186556433
1769239992.0556462,240090,981.6598158186176
1769239992.0958023,240159,963.4644433973326
1769239992.1555696,240307,944.9033592588694
1769239992.2016647,240366,926.3152301459745
1769239992.2571485,240304,908.0427203152252
1769239992.3119984,239882,890.3078150950131
1769239992.371064,239500,873.0418834445067
1769239992.4316213,239473,855.8525375478522
1769239992.4956443,239528,838.2102761020436
1769239992.544173,239617,819.6632116260627
1769239992.584114,239701,799.9231535841517
1769239992.6231456,239661,778.849731080425
1769239992.6616774,239616,756.3837712478654
1769239992.7010248,239634,732.495358413281
1769239992.7568233,239698,707.1944322611563
1769239992.7975714,239766,680.567019342561
1769239992.8577974,239883,652.7942746181976
1769239992.8974826,239973,624.1544532970765
1769239992.95801,240132,595.0164670019394
1769239993.0117004,240216,565.8266145415137
1769239993.0576622,240334,537.081001593363
1769239993.0975132,240340,509.2815655395486
1769239993.157977,239659,482.79592704161934
1769239993.2044213,239292,457.6161866905369
1769239993.2670944,239144,433.3043785965768
1769239993.3044055,239164,409.22208035541433
1769239993.358787,239229,384.77691791987786
1769239993.3991,239288,359.5377365365233
1769239993.4589095,239229,333.23850863737823
1769239993.5055923,239174,305.7165867650206
1769239993.5589836,239158,276.8624415481753
1769239993.5995018,239194,246.62453973791352
1769239993.6597104,239306,215.0481103106468
1769239993.700608,239403,182.3106042911414
1769239993.7596586,239579,148.73464342698986
1769239993.827526,239685,114.77941261186518
1769239993.8774781,239786,81.00525672045168
1769239993.9262269,239879,48.02115847146311
1769239993.9637403,239963,16.44427845166446
1769239994.013559,240019,-13.13001335556298
1769239994.0608938,239454,-40.2348526255572
1769239994.1021652,239033,-64.7490203979388
1769239994.1606596,238851,-86.9888031053951
1769239994.2018678,238891,-107.52378909258387
1769239994.2608213,238902,-126.92732988894863
1769239994.3005672,238988,-145.64987875260167
1769239994.3612328,238930,-164.00387663645628
1769239994.401527,238874,-182.21078064646443
1769239994.4619925,238859,-200.45035992311423
1769239994.5086873,238955,-218.85045831192923
1769239994.562067,239099,-237.4287453027913
1769239994.6015515,239248,-256.0466658653073
1769239994.661908,239396,-274.40860541981095
1769239994.701445,239489,-292.0990749551163
1769239994.7635279,239584,-308.63755071010354
1769239994.8073878,239655,-323.52837517476036
1769239994.8633192,239765,-336.28981397316096
1769239994.9046292,239896,-346.45957830157926
1769239994.9629915,239730,-353.62601145285106
1769239995.0091023,239312,-357.565123927636
1769239995.062988,239061,-358.39855531717643
1769239995.1025116,239072,-356.56545649894156
1769239995.1630008,239123,-352.6202721756758
1769239995.2093065,239186,-347.0646020400185
1769239995.2635887,239187,-340.3032868735497
1769239995.3037314,239133,-332.6758998505127
1769239995.3643382,239119,-324.499917317873
1769239995.4050927,239215,-316.06777686875773
1769239995.463772,239352,-307.59061837585557
1769239995.5129366,239441,-299.1536846962426
1769239995.5638142,239561,-290.7242296725472
1769239995.6037614,239631,-282.1836434757997
1769239995.6649845,239710,-273.36043084903184
1769239995.7058818,239783,-264.05886411420073
1769239995.7646801,239824,-254.08007575245762
1769239995.8045511,239450,-243.29534548044444
1769239995.8650846,239061,-231.8084563793904
1769239995.9065902,239006,-220.03316187667497
1769239995.9649603,239055,-208.5424578210146
1769239996.0120463,239094,-197.8615230133591
1769239996.0654533,239159,-188.3818754842265
1769239996.1055875,239133,-180.36744269006658
1769239996.1656175,239122,-173.99353623074606
1769239996.2103293,239199,-169.37064657661034
1769239996.2655892,239352,-166.5141193689518
1769239996.3055408,239449,-165.30261509061765
1769239996.3659334,239594,-165.48034813017557
1769239996.406174,239662,-166.69056577495869
1769239996.4671836,239762,-168.51666693406003
1769239996.5124037,239842,-170.5172876566445
1769239996.566799,240001,-172.23808802947434
1769239996.606451,240133,-173.2046655703549
1769239996.6669497,240146,-172.93908209478425
1769239996.7077355,239685,-171.0803668241813
1769239996.7670217,239260,-167.59598037771994
1769239996.8066266,239219,-162.85327247088773
1769239996.8682928,239208,-157.43283205937945
1769239996.9100163,239239,-151.90842690099728
1769239996.9679823,239324,-146.75190708629765
1769239997.0122042,239330,-142.31015821005244
1769239997.0677798,239355,-138.82070593114364
1769239997.1074922,239364,-136.44262564046855
1769239997.1677485,239455,-135.26392339832088
1769239997.208352,239502,-135.28905803816662
1769239997.269131,239621,-136.43145175888006
1769239997.3085246,239680,-138.51802960716012
1769239997.3686557,239836,-141.29765834509988
1769239997.4085145,239925,-144.4471999062239
1769239997.4688969,240104,-147.57853347887902
1769239997.5148084,240184,-150.25344705189275
1769239997.5689166,240334,-152.0093384583281
1769239997.608487,240278,-152.40397256399612
1769239997.6700213,239617,-151.16532492822788
1769239997.7114692,239385,-148.4106596995703
1769239997.7699206,239347,-144.63821422805998
1769239997.8094537,239398,-140.4730862224119
1769239997.870012,239520,-136.4584627552046
1769239997.909811,239588,-132.97956489479168
1769239997.9698052,239524,-130.28218793216433
1769239998.0180144,239493,-128.54842509427186
1769239998.0697172,239504,-127.94078032658298
1769239998.110577,239560,-128.58202045450778
1769239998.170495,239658,-130.51499071862818
1769239998.2103684,239787,-133.67251296244737
1769239998.2705638,239937,-137.86232784456246
1769239998.3106575,240047,-142.77456786708876
1769239998.3706348,240143,-148.01628742548024
1769239998.4129088,240237,-153.1551891692311
1769239998.4705274,240328,-157.7503537273992
1769239998.523057,240252,-161.39129692446093
1769239998.5716085,239654,-163.83398645070613
1769239998.6114166,239455,-165.18573017911277
1769239998.6715934,239466,-165.87647846833
1769239998.71333,239530,-166.41607454285304
1769239998.771507,239648,-167.21009807571156
1769239998.8119893,239655,-168.5161020712549
1769239998.871905,239560,-170.49162226906495
1769239998.9115644,239520,-173.27377422280642
1769239998.9728103,239537,-177.00171255329607
1769239999.021348,239579,-181.77765154788443
1769239999.072691,239720,-187.61861033026844
1769239999.112374,239809,-194.42264765555728
1769239999.17246,239988,-201.9601670287074
1769239999.2124994,240035,-209.8926624121002
1769239999.272914,240146,-217.8157883781553
1769239999.3125224,240176,-225.3067886988155
1769239999.373833,239613,-232.0365273751584
1769239999.4144268,239149,-237.99280830908643
1769239999.4742062,238984,-243.5772456818433
1769239999.5136719,238969,-249.41979818081992
1769239999.5738118,239055,-256.122628114739
1769239999.6143737,239109,-264.11904725697747
1769239999.673932,239071,-273.65768123190554
1769239999.7148829,238994,-284.8657583678536
1769239999.7735982,238951,-297.81299670312154
1769239999.8145523,238991,-312.5184928706207
1769239999.874933,239093,-328.9078063656885
1769239999.916935,239205,-346.7678831238705
1769239999.9760902,239372,-365.730469296033
1769240000.0233939,239489,-385.2820177932777
1769240000.0749729,239582,-404.8023562260467
1769240000.11434,239642,-423.6250991981058
1769240000.1745608,239743,-441.0865114492622
1769240000.215307,239825,-456.5462181659744
1769240000.2754664,239407,-469.46061239737116
1769240000.3155193,238864,-479.5869705446076
1769240000.3754678,238531,-487.1455092427145
1769240000.4153144,238523,-492.7168856316849
1769240000.4755714,238496,-496.97656336670514
1769240000.5152287,238541,-500.5096272587443
1769240000.5757394,238494,-503.76374003124175
1769240000.617786,238413,-507.0770299059294
1769240000.6767964,238337,-510.72619546576556
1769240000.7170184,238380,-514.9361918512454
1769240000.7764056,238510,-519.8284213397015
1769240000.8167493,238656,-525.3548665577506
1769240000.876947,238798,-531.2765728499745
1769240000.9184356,238890,-537.195796151665
1769240000.9769027,238985,-542.6140027213165
1769240001.016278,239063,-546.9847872476341
1769240001.0775967,239164,-549.7474451314262
1769240001.1178067,239248,-550.3466358436827
1769240001.1775126,239376,-548.2443470540744
1769240001.2175741,239008,-542.9849301332047
1769240001.2778337,238360,-534.4036154818712
1769240001.317577,238218,-522.8025171052917
1769240001.3779612,238198,-508.8195077724131
1769240001.4176495,238212,-493.1460402451663
1769240001.4785278,238288,-476.37232651314724
1769240001.5185826,238270,-458.95411860695873
1769240001.5786228,238227,-441.2389818364139
1769240001.61825,238267,-423.50526753350215
1769240001.678911,238426,-405.9435518705822
1769240001.719075,238497,-388.6070563932342
1769240001.7784007,238648,-371.4049591154275
1769240001.8189187,238729,-354.1299751992115
1769240001.87938,238859,-336.48847277636986
1769240001.9192104,238925,-318.1325174709547
1769240001.9800727,239102,-298.68264520181276
1769240002.0200102,239250,-277.72745025037284
1769240002.0802093,239255,-254.84041537337689
1769240002.1192794,238801,-229.70757233129012
1769240002.1793537,238418,-202.3402308485958
1769240002.2193513,238383,-173.1370727090584
1769240002.2806337,238428,-142.69383124388744
1769240002.3202796,238500,-111.58078778027732
1769240002.3805287,238594,-80.24944633957469
